ECG1,ECG2,ECG3
0.00042381955,-1.47252085e-05,0.00033089163
0.00042504026,-1.4267445e-05,0.00033134938
3.7460806e-05,-1.2741566e-05,2.0676138e-05
-0.000347219,-1.1368275e-05,-0.0002025633
-0.00012443734,-2.0828726e-05,0.00022606278
0.0005446711,-1.9150259e-05,0.0011078811
0.00065560394,-1.6251088e-05,0.0016289769
0.00027534916,-1.4114858e-05,0.0016417943
-0.0001586175,-1.8845083e-05,0.0016189056
-0.0001273365,-2.1439077e-05,0.0016420995
0.00038887598,-1.1978626e-05,0.0016420995
0.00038185692,-1.2588978e-05,0.0016420995
-0.00015831232,-1.1063099e-05,0.00052544405
-0.00069497206,-1.4877797e-05,-0.00079293543
-0.0007122145,-1.9150259e-05,-0.0010553905
-8.4305764e-05,-2.2049428e-05,-0.00035896827
0.00020164777,-1.8692494e-05,-7.247925e-06
-2.9831412e-05,-1.1368275e-05,-0.00017540265
-0.00040032007,-1.3504506e-05,-0.0004845505
-0.0004221411,-1.9608022e-05,-0.0004512854
0.00018730451,-2.3880482e-05,0.00020225812
0.00050041964,-1.8692494e-05,0.00051949313
0.00020149518,-1.1673451e-05,0.00022880937
-0.00025276566,-1.3046742e-05,-0.00023949052
-0.0004084077,-1.9455434e-05,-0.0003975735
0.0001287098,-2.0218373e-05,0.000112077716
0.0005075913,-2.0218373e-05,0.0004908066
0.00024940874,-1.8387318e-05,0.0002372017
-0.00019798566,-1.6556263e-05,-0.00019798566
-0.0004187837,-1.6708851e-05,-0.00042046263
6.1722756e-05,-2.0828726e-05,5.0278188e-05
0.0005082016,-2.0676138e-05,0.0004901962
0.00030556205,-1.9913197e-05,0.00029991628
-0.00014183235,-1.3504506e-05,-0.0001400013
-0.00042671873,-1.899767e-05,-0.000417563
-1.2894154e-05,-2.4490835e-05,-1.6708851e-05
0.0004943161,-2.1286489e-05,0.0004824138
0.0003473716,-1.7166616e-05,0.00034554055
-9.0562346e-05,-1.6708851e-05,-8.110142e-05
-0.00042229367,-1.7166616e-05,-0.000404593
-8.4305764e-05,-2.2812368e-05,-7.606602e-05
0.00047325852,-2.4948598e-05,0.0004734111
0.00039269068,-1.1215688e-05,0.00040215114
-3.0746938e-05,-1.60985e-05,-8.926392e-06
-0.0004035249,-1.8387318e-05,-0.0003710232
-0.00015159846,-2.3270131e-05,-0.00012687875
0.0004422827,-2.5406362e-05,0.00045906784
0.0004349585,-1.899767e-05,0.00046105147
2.9831412e-05,-1.5335561e-05,6.9046975e-05
-0.00037010768,-1.7929555e-05,-0.00032082084
-0.00021538115,-2.2507193e-05,-0.00017006208
0.00040016748,-2.3270131e-05,0.00043373776
0.00047158005,-1.7166616e-05,0.00051567843
7.9422956e-05,-1.0910511e-05,0.00013771297
-0.00034172586,-1.4420033e-05,-0.00026985598
-0.00027260257,-2.1439077e-05,-0.00019920636
0.00034508278,-2.693224e-05,0.0004073391
0.0005002671,-1.0452748e-05,0.0005733581
0.00013862849,-1.030016e-05,0.00022682572
-0.00029808475,-1.899767e-05,-0.00019142438
-0.00031075,-1.899767e-05,-0.00019813825
0.00029091313,-2.5101186e-05,0.0003974209
0.0005318537,-1.8539906e-05,0.0006516366
0.00020317365,-1.0605336e-05,0.00034294656
-0.00024315262,-1.5335561e-05,-8.1711776e-05
-0.00033791116,-1.9150259e-05,-0.00016288996
0.00023201371,-2.1591664e-05,0.0004035244
0.000553216,-2.0065785e-05,0.00074120716
0.00026115848,-1.4114858e-05,0.00047798874
-0.00019035627,-1.319933e-05,5.668688e-05
-0.00035698464,-1.2131215e-05,-8.918906e-05
0.0001712823,-2.5864125e-05,0.00044411374
0.000567102,-2.0523548e-05,0.0008580914
0.00032280447,-1.6556263e-05,0.0006453805
-0.00012031746,-2.0065785e-05,0.00023247147
-0.0003598838,-1.7014028e-05,1.777649e-05
0.000105211264,-2.4338247e-05,0.00048592332
0.00057595206,-1.762438e-05,0.0009682613
0.000383688,-1.8692494e-05,0.00080468465
-5.6077006e-05,-1.6251088e-05,0.00038689232
-0.00035316995,-1.6251088e-05,0.00010688973
3.6697867e-05,-2.6016713e-05,0.0004937058
0.00055779365,-2.403307e-05,0.0010180054
0.00042320922,-1.8692494e-05,0.00090005354
-1.5945912e-05,-1.5793325e-05,0.00047386886
-0.0003633938,-1.319933e-05,0.00013450814
-5.5924418e-05,-1.7166616e-05,0.00043022825
0.0005060654,-2.4643423e-05,0.00097528036
0.0004348059,-1.9455434e-05,0.00089868024
8.010865e-06,-2.1744252e-05,0.00046044114
-0.00037392238,-2.0981313e-05,6.0502054e-05
-0.00015846491,-2.3117544e-05,0.00023811722
0.00043556883,-1.8692494e-05,0.000786984
0.00044548704,-1.24363905e-05,0.00077019935
3.349352e-05,-1.5182973e-05,0.00033195975
-0.0003847561,-1.5793325e-05,-0.0001136036
-0.00025322344,-2.0981313e-05,-2.2202015e-05
0.00035774757,-2.7847767e-05,0.00054039864
0.00044777585,-2.1744252e-05,0.0006057072
6.0654642e-05,-1.5488149e-05,0.0001987486
-0.00037041283,-1.9150259e-05,-0.00024818804
-0.00032784033,-2.0218373e-05,-0.00023140336
0.00028068974,-2.7542592e-05,0.000339437
0.00045418504,-1.7471792e-05,0.00050118257
9.0104106e-05,-1.5945912e-05,0.0001313038
-0.00035011818,-1.5030385e-05,-0.00031059745
-0.00038902857,-1.3809681e-05,-0.00036018898
0.00020561506,-1.7471792e-05,0.0002114134
0.00046242477,-1.3809681e-05,0.00046456102
0.00013786554,-8.926392e-06,0.00014457942
-0.0003122759,-1.030016e-05,-0.00030022097
-0.00042900754,-1.5488149e-05,-0.0004186311
0.00013466073,-1.6861439e-05,0.00012718391
0.00047631026,-2.3270131e-05,0.00046547654
0.00019295026,-1.3809681e-05,0.00019127179
-0.00026024246,-1.7471792e-05,-0.00025200273
-0.00044548704,-2.0065785e-05,-0.000435874
6.691075e-05,-1.8692494e-05,6.187535e-05
0.00048287155,-1.5488149e-05,0.00047463182
0.00024757767,-9.384155e-06,0.00024773026
-0.0001999693,-1.396227e-05,-0.00018715192
-0.00045067503,-9.842396e-06,-0.00043572142
-8.163453e-06,-1.1368275e-05,-5.4168704e-06
0.00047203782,-1.396227e-05,0.000469749
0.00029793265,-1.1063099e-05,0.0003057146
-0.00014717341,-1.2131215e-05,-0.00013084603
-0.00045586302,-1.3657093e-05,-0.00043526365
-8.4458356e-05,-2.2202015e-05,-7.743931e-05
0.00045143845,-2.0523548e-05,0.00045006516
0.0003373008,-1.2131215e-05,0.0003444724
-9.559775e-05,-1.8845083e-05,-8.125401e-05
-0.00044686033,-1.4114858e-05,-0.0004245825
-0.00015953302,-1.7166616e-05,-0.00015129328
0.00041893675,-1.9913197e-05,0.00041466428
0.00037315942,-1.762438e-05,0.0003749905
-4.4632437e-05,-1.7471792e-05,-3.5324574e-05
-0.0004323645,-1.60985e-05,-0.00041893628
-0.00022896196,-1.7929555e-05,-0.00022652055
0.0003786526,-2.0828726e-05,0.0003636985
0.0004073391,-1.8539906e-05,0.00039436916
8.773804e-06,-1.5030385e-05,1.7547608e-06
-0.00040886548,-1.60985e-05,-0.00041039134
-0.00029549075,-1.9150259e-05,-0.00030495168
0.0003221941,-2.0523548e-05,0.00029366018
0.00043053343,-1.9150259e-05,0.00040413477
5.4550652e-05,-1.5182973e-05,3.3340933e-05
-0.00037880518,-7.400513e-06,-0.00039406397
-0.00035011818,-1.4267445e-05,-0.0003734646
0.0002619214,-1.8387318e-05,0.00021858598
0.00045220138,-1.3351918e-05,0.00041039183
0.00010795784,-1.24363905e-05,7.25565e-05
-0.00033897927,-1.4420033e-05,-0.00036888698
-0.00039314845,-1.8692494e-05,-0.00042778684
0.00019325543,-2.1286489e-05,0.00013969661
0.0004721904,-1.5335561e-05,0.0004171057
0.00016090632,-1.3351918e-05,0.00011253548
-0.00029289676,-1.4877797e-05,-0.0003331809
-0.00042427733,-1.2588978e-05,-0.00046547654
0.0001198597,-1.7929555e-05,6.019688e-05
0.0004785991,-2.5101186e-05,0.00041512205
0.00020485211,-1.396227e-05,0.00014869928
-0.00024849322,-1.2131215e-05,-0.00029777957
-0.0004560156,-1.7471792e-05,-0.0005048447
3.8071157e-05,-2.0218373e-05,-2.845812e-05
0.00046822312,-2.2202015e-05,0.000395895
0.00024376299,-1.5488149e-05,0.00017952253
-0.00020622589,-1.24363905e-05,-0.00026237871
-0.0004735637,-1.5488149e-05,-0.000524529
-4.4632437e-05,-2.5406362e-05,-0.000110857014
0.00045113327,-1.823473e-05,0.0003772793
0.00028557255,-1.7166616e-05,0.00021934892
-0.00015480281,-1.7776967e-05,-0.0002133975
-0.00047585252,-2.0828726e-05,-0.00052803854
-0.00012260629,-2.5711537e-05,-0.00018944073
0.00042153074,-2.0981313e-05,0.00034508278
0.0003199053,-1.9913197e-05,0.00025139237
-0.00010673667,-1.823473e-05,-0.00016777325
-0.00046913864,-1.7014028e-05,-0.00052178244
-0.00020057966,-2.0676138e-05,-0.0002645154
0.0003809414,-2.4338247e-05,0.0003047991
0.00035912087,-1.4114858e-05,0.00028892947
-5.882359e-05,-1.1978626e-05,-0.00012031746
-0.0004534216,-1.7776967e-05,-0.00050911715
-0.0002671094,-1.9150259e-05,-0.0003319602
0.00034157326,-1.6556263e-05,0.00026359988
0.00039070702,-1.5030385e-05,0.00031807425
-2.5177003e-06,-1.1520863e-05,-6.538487e-05
-0.00042061522,-1.396227e-05,-0.00047371627
-0.00032723,-1.7776967e-05,-0.0003873501
0.00029091313,-2.1133901e-05,0.00021599198
0.00042229367,-1.3657093e-05,0.00035057595
5.2261832e-05,-6.6375737e-06,-9.689332e-06
-0.00038033107,-1.5945912e-05,-0.00043511105
-0.0003736172,-1.5182973e-05,-0.00043373776
0.0002309456,-2.1744252e-05,0.00015526057
0.00044518188,-1.9913197e-05,0.00036964944
0.00010170174,-1.5945912e-05,3.7613394e-05
-0.00034309912,-1.8082143e-05,-0.00039665797
-0.00041939403,-2.1591664e-05,-0.00047371627
0.00016441585,-2.479601e-05,9.2392926e-05
0.00045998336,-1.6403676e-05,0.0003871975
0.0001586175,-1.5640737e-05,0.00010048104
-0.00028740359,-8.468628e-06,-0.0003369956
-0.0004448767,-1.6556263e-05,-0.0005007248
9.52921e-05,-2.2964956e-05,2.7542592e-05
0.00047631026,-1.3657093e-05,0.00042381955
0.00021889116,-1.1063099e-05,0.00020912457
-0.00022697831,-1.6251088e-05,-0.00021583893
-0.00044441893,-1.8082143e-05,-0.00042687132
3.6392692e-05,-1.7929555e-05,4.3106556e-05
0.00048668624,-1.4114858e-05,0.00048683884
0.00027580693,-1.1520863e-05,0.00028648807
-0.00017677594,-1.762438e-05,-0.00014473153
-0.00045799924,-1.2588978e-05,-0.00041451122
-5.638218e-05,-1.976061e-05,-4.6616078e-05
0.00044640258,-1.60985e-05,0.00043755246
0.00029152347,-2.1133901e-05,0.00029015017
-0.00014824152,-1.9150259e-05,-0.00013008309
-0.00047386886,-1.4267445e-05,-0.00044014645
-0.00014045907,-1.8845083e-05,-0.0001198597
0.00041481687,-1.4572621e-05,0.00041878416
0.00032646657,-1.6251088e-05,0.00032539846
-0.000103074555,-1.24363905e-05,-0.00010841561
-0.0004760051,-1.1673451e-05,-0.00048592378
-0.00022880937,-1.823473e-05,-0.00026665165
0.00036644508,-2.0065785e-05,0.0003171587
0.00036034157,-1.823473e-05,0.00032814505
-5.0126077e-05,-1.0147572e-05,-8.125401e-05
-0.00044930173,-1.2894154e-05,-0.00048165134
-0.00028572514,-2.4185658e-05,-0.0003281455
0.00032463553,-1.762438e-05,0.0002558179
0.00039070702,-1.5793325e-05,0.00029243898
-7.247925e-06,-1.4114858e-05,-0.000113756185
-0.00042885495,-9.689332e-06,-0.0005127793
-0.0003508811,-1.2131215e-05,-0.0004283972
0.00026039555,-1.5793325e-05,0.00016044856
0.00041680053,-1.2894154e-05,0.00032158376
5.0888542e-05,-1.3351918e-05,-3.4103872e-05
-0.00038384058,-1.1368275e-05,-0.00045815183
-0.00039909937,-1.7776967e-05,-0.00047569993
0.00020225812,-2.189684e-05,0.00010902596
0.00043663694,-1.5488149e-05,0.0003458457
0.00010383797,-1.2131215e-05,2.2507193e-05
-0.00034386208,-1.6556263e-05,-0.0004137483
-0.0004421301,-1.5945912e-05,-0.00051293185
0.00013008309,-1.5335561e-05,4.753161e-05
0.00044563963,-1.5182973e-05,0.00035759498
0.00015037776,-1.2283803e-05,8.003331e-05
-0.0003035784,-1.9150259e-05,-0.00036934472
-0.00046761276,-1.4877797e-05,-0.00052422384
5.1346306e-05,-1.4267445e-05,-3.1815052e-05
0.00045159104,-1.762438e-05,0.00037895777
0.00022331621,-1.9455434e-05,0.00014320613
-0.00019539167,-2.0828726e-05,-0.00022148468
-0.0004221411,-1.5182973e-05,-0.0003348594
7.179356e-05,-2.1439077e-05,0.0003574424
0.0005921264,-2.2354603e-05,0.0010498973
0.00045937303,-1.5488149e-05,0.0013025862
4.646349e-05,-1.2741566e-05,0.0012703901
-0.00025535966,-1.9455434e-05,0.0014251161
8.842564e-05,-2.037096e-05,0.0016420995
0.0005172043,-1.07579235e-05,0.0016420995
0.0002436104,-9.842396e-06,0.0016420995
-0.0003673611,-1.0452748e-05,0.00069542986
-0.00084252696,-8.926392e-06,-0.000636683
-0.00057702017,-1.8845083e-05,-0.00081368734
8.926392e-06,-1.7776967e-05,-0.00019935895
-1.1673451e-05,-1.5640737e-05,-0.00014396859
-0.00032799292,-1.8387318e-05,-0.00042671873
-0.00061928754,-8.926392e-06,-0.00068276504
-0.0003282981,-1.6403676e-05,-0.0003807888
0.00031761648,-1.6556263e-05,0.00032722953
0.00035774757,-1.3657093e-05,0.00038551906
-3.5934925e-05,-1.1368275e-05,1.2741089e-05
-0.0004398413,-8.31604e-06,-0.0004110017
-0.00029854252,-1.396227e-05,-0.00027962163
0.00031792166,-2.037096e-05,0.0003070879
0.00041634275,-1.6708851e-05,0.00041588498
3.1509877e-05,-1.2588978e-05,2.9678822e-05
-0.0003922329,-1.5030385e-05,-0.00038139918
-0.00034035256,-2.2507193e-05,-0.0003409629
0.0002759595,-2.845812e-05,0.00026390507
0.00045067552,-1.6861439e-05,0.0004373999
9.620762e-05,-1.7166616e-05,9.52921e-05
-0.0003461509,-2.0218373e-05,-0.0003386741
-0.00038292506,-2.3117544e-05,-0.0003749905
0.00021080305,-2.2507193e-05,0.00020119
0.00046944382,-2.1744252e-05,0.00046059373
0.00014427424,-1.7471792e-05,0.00014793636
-0.0003069353,-1.1673451e-05,-0.00029243898
-0.00042046263,-2.2049428e-05,-0.00040688182
0.0001384759,-1.5945912e-05,0.00013511849
0.00047386886,-1.5793325e-05,0.00047371627
0.00019386578,-1.3809681e-05,0.00020530987
-0.00025535966,-1.5182973e-05,-0.00023277666
-0.0004447241,-1.5945912e-05,-0.00041542674
7.026768e-05,-1.6708851e-05,8.461094e-05
0.0004834819,-1.8845083e-05,0.000495842
0.00025185014,-1.7471792e-05,0.00027763797
-0.00019478131,-1.7471792e-05,-0.0001587701
-0.00044396115,-1.6708851e-05,-0.00040062572
1.7547608e-06,-2.3117544e-05,3.3188346e-05
0.0004825664,-2.1439077e-05,0.0005103379
0.00030891897,-1.823473e-05,0.0003496604
-0.00014091683,-1.2894154e-05,-8.7204935e-05
-0.00044548704,-1.823473e-05,-0.00038323022
-7.408238e-05,-1.7319204e-05,-1.9608022e-05
0.00046105147,-1.7776967e-05,0.0005098801
0.00034905007,-1.1673451e-05,0.00041283324
-8.247471e-05,-1.2131215e-05,-3.5858156e-06
-0.0004322119,-1.4420033e-05,-0.0003395896
-0.00013969613,-1.1673451e-05,-5.1804545e-05
0.0004425879,-2.1439077e-05,0.00052788644
0.00039772608,-1.9150259e-05,0.00050148775
-1.6861439e-05,-1.396227e-05,0.000105211264
-0.00039894678,-1.1215688e-05,-0.00025719072
-0.00018974592,-1.9302846e-05,-4.4327262e-05
0.00042107297,-1.9608022e-05,0.0005645075
0.00045464278,-1.07579235e-05,0.00062035565
5.9128764e-05,-1.3046742e-05,0.00025108721
-0.00034874488,-1.2588978e-05,-0.00013206674
-0.00023369218,-1.6861439e-05,-2.975464e-06
0.0003849087,-2.2507193e-05,0.00062096596
0.0004999619,-1.1978626e-05,0.0007601281
0.00012809945,-1.07579235e-05,0.00041725827
-0.00030373098,-1.5030385e-05,1.5335083e-05
-0.00027550175,-1.762438e-05,5.8517937e-05
0.00033928442,-2.0676138e-05,0.00067742396
0.00053490547,-2.0676138e-05,0.00089211896
0.00018791486,-2.037096e-05,0.00057183224
-0.00025642777,-1.1215688e-05,0.00014900447
-0.00031059745,-1.396227e-05,0.00010368539
0.00027687504,-2.5864125e-05,0.000686122
0.0005547419,-1.7929555e-05,0.00097619585
0.0002422371,-1.1063099e-05,0.0006804757
-0.00020836211,-1.1215688e-05,0.0002434578
-0.00034752418,-1.3046742e-05,0.00010826302
0.00019707013,-2.693224e-05,0.00063622475
0.0005426874,-2.3880482e-05,0.0009783321
0.00026619388,-1.976061e-05,0.00069878675
-0.00019539167,-2.0218373e-05,0.00023186112
-0.0004137483,-1.6861439e-05,-6.027222e-06
7.392979e-05,-2.555895e-05,0.0004398413
0.0004935532,-2.1286489e-05,0.0008261996
0.00027016117,-1.5945912e-05,0.0005809875
-0.00018669416,-1.7319204e-05,0.00010170174
-0.00045952562,-1.7319204e-05,-0.00019905377
-3.50194e-05,-2.189684e-05,0.00017936993
0.00045510055,-1.7929555e-05,0.0006319523
0.00028709843,-1.2283803e-05,0.00044029905
-0.00015648127,-1.1978626e-05,-1.8082143e-05
-0.0004735637,-8.621216e-06,-0.0003560691
-0.00012153817,-2.1744252e-05,-4.1275503e-05
0.00042442992,-2.4490835e-05,0.0004772258
0.00032417776,-1.5640737e-05,0.00036324075
-0.000103074555,-1.5793325e-05,-6.721592e-05
-0.00046288254,-1.3046742e-05,-0.00042809203
-0.00020073225,-2.2812368e-05,-0.00018532087
0.00038384058,-2.0981313e-05,0.00037911037
0.0003635459,-4.653931e-06,0.00036034157
-5.2414896e-05,-1.3046742e-05,-5.1804545e-05
-0.0004499121,-2.1744252e-05,-0.00044777585
-0.0002657361,-2.3270131e-05,-0.00027290775
0.0003458457,-2.3575307e-05,0.0003235674
0.0003946743,-2.0981313e-05,0.00037819482
2.975464e-06,-1.7776967e-05,-2.2888185e-07
-0.00041695262,-1.762438e-05,-0.0004135957
-0.00032005788,-2.4185658e-05,-0.00032417823
0.0002947283,-1.9608022e-05,0.00027489138
0.0004285498,-1.899767e-05,0.00041741086
5.8671e-05,-1.5030385e-05,5.302477e-05
-0.0003795681,-1.5793325e-05,-0.0003749905
-0.00037132838,-2.189684e-05,-0.00036888698
0.0002323189,-2.2812368e-05,0.00021965409
0.00045159104,-1.823473e-05,0.00044060423
0.00010612679,-1.07579235e-05,0.00010200692
-0.0003421836,-1.0147572e-05,-0.00033501198
-0.00042259885,-1.4877797e-05,-0.00041542674
0.00015526057,-1.7319204e-05,0.00014839412
0.00045342208,-1.4267445e-05,0.0004409094
0.00014671565,-1.3504506e-05,0.00014473201
-0.0003032732,-7.553101e-06,-0.00029640627
-0.000458457,-1.1368275e-05,-0.00044945432
7.454014e-05,-1.6861439e-05,6.218052e-05
0.00045571092,-1.7319204e-05,0.0004373999
0.0001975279,-1.5793325e-05,0.00018837262
-0.00025291825,-1.6708851e-05,-0.00025429155
-0.00047661545,-1.4572621e-05,-0.00047783615
4.3487553e-06,-1.976061e-05,-1.9455434e-05
0.00045647385,-2.2812368e-05,0.00042504026
0.00024650956,-1.5030385e-05,0.00022255327
-0.00019737531,-1.1063099e-05,-0.00021492339
-0.00047829392,-9.842396e-06,-0.00049767306
-7.164097e-05,-1.7471792e-05,-0.00010795784
0.00043785764,-1.4267445e-05,0.0003910122
0.00028908206,-1.2588978e-05,0.00024559404
-0.00015693904,-1.4572621e-05,-0.00019218732
-0.00048790744,-1.7929555e-05,-0.00052315573
-0.0001586175,-1.4267445e-05,-0.00020805694
0.00040154078,-1.5793325e-05,0.00034126808
0.00031898977,-9.536743e-06,0.0002619214
-0.00010933114,-1.07579235e-05,-0.00016273737
-0.0004793625,-1.5182973e-05,-0.0005265126
-0.00023918535,-2.1133901e-05,-0.00029762698
0.00035545876,-2.2354603e-05,0.00028191044
0.000347219,-1.4572621e-05,0.00027901126
-6.4011576e-05,-2.1439077e-05,-0.00012413216
-0.00046334032,-1.60985e-05,-0.0005191884
-0.0003047991,-1.7471792e-05,-0.0003723965
0.00030922415,-1.3809681e-05,0.00022728348
0.000383688,-9.994984e-06,0.00030403616
-8.010865e-06,-1.4114858e-05,-7.957554e-05
-0.00042916014,-1.2741566e-05,-0.0004905014
-0.00036034157,-1.6251088e-05,-0.00043175413
0.000254292,-1.6251088e-05,0.00016350031
0.00041115476,-1.3504506e-05,0.00032646657
5.2109244e-05,-1.0147572e-05,-2.7542592e-05
-0.00038780787,-1.47252085e-05,-0.00045922044
-0.000404593,-2.1591664e-05,-0.00047859957
0.00020088482,-1.9913197e-05,0.000108720786
0.000441062,-1.6861439e-05,0.00035072851
0.00011573983,-1.4114858e-05,3.364611e-05
-0.0003360801,-1.5945912e-05,-0.0004108491
-0.00043526365,-1.2894154e-05,-0.0005060654
0.00013206674,-2.7237416e-05,4.2648793e-05
0.00045021775,-2.1744252e-05,0.00035790016
0.00015846491,-9.07898e-06,7.25565e-05
-0.00029518557,-1.6861439e-05,-0.0003746853
-0.00046929123,-2.0828726e-05,-0.0005440607
5.1498893e-05,-1.5640737e-05,-3.9902214e-05
0.00044563963,-1.4572621e-05,0.00034752418
0.00019707013,-1.4267445e-05,0.000105821615
-0.00025520707,-1.07579235e-05,-0.00033272317
-0.000488823,-1.3809681e-05,-0.000566186
-2.6016713e-05,-2.0676138e-05,-0.000118944175
0.00043373776,-2.5406362e-05,0.00033379128
0.00024193192,-2.1744252e-05,0.00015083552
-0.00020103742,-1.5182973e-05,-0.00028496218
-0.0004970627,-1.030016e-05,-0.00057671504
-0.00010643149,-1.9455434e-05,-0.00019981671
0.00041649534,-2.3117544e-05,0.00031181815
0.0002822156,-2.2507193e-05,0.00019096662
-0.00014930964,-1.9455434e-05,-0.000233387
-0.0004937058,-1.9913197e-05,-0.00057137397
-0.00018822003,-1.9302846e-05,-0.00028068974
0.000383688,-1.9913197e-05,0.00028023197
0.00032371999,-1.60985e-05,0.00022865678
-0.000100785735,-1.5182973e-05,-0.00018699933
-0.00048241427,-1.976061e-05,-0.000563592
-0.00025719072,-1.976061e-05,-0.00034630348
0.0003423362,-1.7319204e-05,0.0002434578
0.00036140968,-7.705688e-06,0.0002671094
-3.6697867e-05,-1.0147572e-05,-0.000120012286
-0.00044304563,-1.5030385e-05,-0.0005144577
-0.00030907156,-2.2964956e-05,-0.00039436916
0.0003110552,-1.9150259e-05,0.00020714093
0.00040810206,-1.6861439e-05,0.00031792166
2.8000357e-05,-1.4114858e-05,-2.4948598e-05
-0.0003936062,-1.6861439e-05,-0.0004110017
-0.00034431985,-1.976061e-05,-0.00035957864
0.00027138187,-1.8387318e-05,0.00024620438
0.00044655515,-2.0218373e-05,0.0004207678
9.162998e-05,-1.47252085e-05,7.8812605e-05
-0.00035515358,-1.6556263e-05,-0.0003562217
-0.00040184642,-1.6403676e-05,-0.00039024928
0.00018257428,-2.5864125e-05,0.00017021419
0.00043648435,-2.0676138e-05,0.000406271
0.000107500084,-1.7929555e-05,8.4458356e-05
-0.0003458457,-1.7166616e-05,-0.0003546958
-0.0004621196,-1.4572621e-05,-0.0004586096
0.000100633624,-1.976061e-05,8.339024e-05
0.00044426633,-1.319933e-05,0.0004245825
0.0001573968,-1.1673451e-05,0.00014213801
-0.00030067874,-8.010865e-06,-0.00032509377
-0.0004950791,-1.3809681e-05,-0.00053047994
1.197815e-05,-2.2507193e-05,-5.4856304e-05
0.00043190672,-1.5182973e-05,0.0003534751
0.00020027447,-1.1826039e-05,0.00014061213
-0.00025123978,-1.396227e-05,-0.0003057146
-0.0005043869,-1.7166616e-05,-0.0005645075
-6.0349466e-05,-2.1133901e-05,-0.00014290048
0.0004221411,-1.4572621e-05,0.00032875538
0.00024315262,-1.3504506e-05,0.00013069344
-0.00020302106,-1.7776967e-05,-0.00033653787
-0.000516594,-1.823473e-05,-0.00064034516
-0.0001363392,-2.5253774e-05,-0.00024940874
0.0003998623,-2.037096e-05,0.00027138187
0.00028282596,-1.1063099e-05,0.00016075374
-0.00014366342,-1.0910511e-05,-0.00025749588
-0.0004981308,-1.319933e-05,-0.000601892
-0.0002133975,-1.8539906e-05,-0.00033119728
0.00036583474,-2.2812368e-05,0.0002347603
0.00032326224,-1.9150259e-05,0.00020332623
-9.758139e-05,-9.994984e-06,-0.0002071414
-0.00048516085,-8.31604e-06,-0.0005841918
-0.00028664066,-1.47252085e-05,-0.00040047313
0.0003186846,-2.0523548e-05,0.00019417096
0.00035576394,-2.2049428e-05,0.00023811722
-4.2038442e-05,-1.3351918e-05,-0.00014625741
-0.0004573889,-9.689332e-06,-0.00055809884
-0.00034508278,-2.0676138e-05,-0.00044151975
0.00027016117,-2.2507193e-05,0.00014518977
0.0003896389,-1.5945912e-05,0.00028053715
2.479601e-05,-1.6403676e-05,-8.903647e-05
-0.00037026027,-1.2894154e-05,-0.0004438086
-0.00032921362,-2.037096e-05,-0.0003397422
0.00029671192,-2.342272e-05,0.00046654465
0.00054528145,-1.7319204e-05,0.0008695355
0.0002697034,-1.4572621e-05,0.0009177537
-0.00012565804,-1.6403676e-05,0.00089944317
-0.00017433453,-2.4643423e-05,0.0013311205
0.00038673976,-1.7014028e-05,0.0016420995
0.00059304194,-3.2806397e-06,0.0016420995
0.00016609431,-5.2642827e-06,0.0016420995
-0.00046425583,-1.07579235e-05,0.00084512145
-0.0007570763,-1.24363905e-05,-0.00027626468
-0.00028450444,-1.3657093e-05,-0.00046822312
8.247471e-05,-1.4420033e-05,-0.00021278716
-0.00016533137,-1.3351918e-05,-0.00033913186
-0.00055046944,-1.2588978e-05,-0.0006794081
-0.0006571298,-1.5640737e-05,-0.0007480736
-9.468222e-05,-2.0523548e-05,-0.00021843292
0.0003975735,-2.4490835e-05,0.00033058645
0.00020851422,-2.0676138e-05,0.00019005108
-0.00021797515,-1.6861439e-05,-0.00020546294
-0.00048409274,-1.3809681e-05,-0.00048241427
-5.8671e-05,-2.037096e-05,-8.247471e-05
0.0004448767,-1.6708851e-05,0.0003986416
0.0002822156,-1.2588978e-05,0.00024315262
-0.00015480281,-1.07579235e-05,-0.00019630718
-0.0004734111,-1.319933e-05,-0.0005059128
-0.00012214851,-2.0218373e-05,-0.00016731549
0.00043007566,-1.24363905e-05,0.00038048366
0.0003398948,-1.2131215e-05,0.00029076054
-9.315634e-05,-1.5488149e-05,-0.0001262684
-0.0004499121,-1.823473e-05,-0.00047646285
-0.00018318463,-2.1133901e-05,-0.0002173648
0.0004047451,-2.0218373e-05,0.0003545432
0.00038536647,-1.6708851e-05,0.00034264138
-3.3035758e-05,-1.7776967e-05,-6.157017e-05
-0.00042381955,-1.7014028e-05,-0.0004460974
-0.00025276566,-1.9913197e-05,-0.00027611208
0.0003649192,-2.2812368e-05,0.00032585624
0.00041756345,-1.3657093e-05,0.00038567162
2.1439077e-05,-1.07579235e-05,4.196167e-06
-0.0003986416,-9.07898e-06,-0.00040657664
-0.0003086138,-1.2741566e-05,-0.00032509377
0.0003083086,-2.0676138e-05,0.00028114748
0.00044411374,-1.4267445e-05,0.00042397215
7.515049e-05,-1.24363905e-05,6.538487e-05
-0.00036263088,-1.8692494e-05,-0.00036156274
-0.00035530617,-2.0676138e-05,-0.0003533225
0.00024650956,-1.6708851e-05,0.00023460771
0.00046318772,-1.6708851e-05,0.00045418504
0.00012809945,-1.7929555e-05,0.00013511849
-0.000313344,-1.5030385e-05,-0.00029228642
-0.0003937588,-1.6403676e-05,-0.000373312
0.00018974592,-1.9302846e-05,0.00020027447
0.0004897385,-1.7776967e-05,0.000505455
0.00019127179,-1.5793325e-05,0.00022346879
-0.00025963213,-1.7014028e-05,-0.00021309234
-0.0004125276,-1.7014028e-05,-0.0003533225
0.000121232995,-2.3117544e-05,0.00017296076
0.00050118257,-2.189684e-05,0.0005565729
0.00025123978,-1.60985e-05,0.0003299761
-0.00020332623,-1.5182973e-05,-0.000108110435
-0.00042198852,-1.823473e-05,-0.00031013967
5.7754994e-05,-2.5101186e-05,0.00016151667
0.0005092697,-2.0676138e-05,0.0006191349
0.00030769827,-1.6708851e-05,0.00043907834
-0.00013298226,-1.4267445e-05,2.555895e-05
-0.00041298533,-1.2741566e-05,-0.00023201371
-2.3651123e-06,-2.479601e-05,0.00018333722
0.00051018526,-1.9913197e-05,0.0007094679
0.00036842874,-1.0605336e-05,0.000594873
-6.477452e-05,-1.5640737e-05,0.00019615461
-0.00039940455,-1.7166616e-05,-0.00011070443
-6.919957e-05,-2.2812368e-05,0.00022575761
0.0004959946,-2.3575307e-05,0.00079522375
0.00042000486,-1.1673451e-05,0.0007416649
-1.1444092e-06,-1.1520863e-05,0.00034523537
-0.0003723965,-1.3046742e-05,-2.3651123e-06
-0.00012550545,-1.4114858e-05,0.00024818804
0.00046608687,-2.0523548e-05,0.000838254
0.00046257736,-1.6403676e-05,0.0008529034
4.9210073e-05,-1.6251088e-05,0.00045372726
-0.00035652687,-1.9150259e-05,6.218052e-05
-0.00020515776,-1.9302846e-05,0.0002101927
0.0003960476,-2.4948598e-05,0.00079491857
0.00047188523,-2.1133901e-05,0.00087731745
7.789708e-05,-1.6251088e-05,0.00048409225
-0.0003536277,-1.7929555e-05,4.50902e-05
-0.0002974744,-2.2964956e-05,7.789708e-05
0.00031075,-2.2507193e-05,0.000643549
0.00046166184,-1.319933e-05,0.00076852087
9.8497396e-05,-1.5182973e-05,0.00038384058
-0.00034889748,-1.4420033e-05,-8.354283e-05
-0.00037880518,-1.899767e-05,-0.00014518929
0.00021522904,-2.265978e-05,0.00039818385
0.00045357467,-1.24363905e-05,0.00060769083
0.000121690755,-1.319933e-05,0.00025215533
-0.0003209734,-1.5945912e-05,-0.00021019316
-0.00042900754,-1.3657093e-05,-0.00034279397
0.0001361866,-2.2812368e-05,0.00017753888
0.00046395065,-2.2049428e-05,0.0004834819
0.0001648736,-1.5945912e-05,0.00018150617
-0.00028419925,-2.0065785e-05,-0.0002735181
-0.0004621196,-1.6708851e-05,-0.00046227218
5.2109244e-05,-1.9455434e-05,2.6779653e-05
0.00044930223,-2.2202015e-05,0.00041573241
0.0002075987,-2.0981313e-05,0.00018181134
-0.00024071122,-1.60985e-05,-0.00026421025
-0.00048180393,-1.7166616e-05,-0.00050774385
-2.6169302e-05,-2.3727895e-05,-7.164097e-05
0.00044411374,-2.0676138e-05,0.0003913174
0.00025627567,-2.0523548e-05,0.0002126341
-0.00018760968,-1.3351918e-05,-0.00022148468
-0.00048104097,-1.8387318e-05,-0.0005138474
-9.2393406e-05,-2.4185658e-05,-0.00014229013
0.00043450072,-1.976061e-05,0.0003757534
0.00030754568,-1.3657093e-05,0.0002631421
-0.00012657356,-8.010865e-06,-0.00016014338
-0.00047310593,-1.396227e-05,-0.0004956894
-0.00017051984,-1.8692494e-05,-0.0002039366
0.00040047267,-1.8082143e-05,0.0003496604
0.0003484397,-1.5182973e-05,0.0003084612
-7.560826e-05,-1.0605336e-05,-0.00010414267
-0.00045799924,-1.8387318e-05,-0.00047905734
-0.00023140336,-1.6251088e-05,-0.000267262
0.00036461404,-1.3809681e-05,0.00031395437
0.00038139918,-1.976061e-05,0.00033928442
-1.9455434e-05,-1.1215688e-05,-4.9057962e-05
-0.00043038084,-9.689332e-06,-0.00045662597
-0.0003012891,-1.5640737e-05,-0.0003347068
0.00031670096,-1.9455434e-05,0.00026939824
0.00041680053,-2.1133901e-05,0.00037041237
2.8915883e-05,-1.823473e-05,-1.0147572e-05
-0.00040657664,-1.4114858e-05,-0.0004409094
-0.0003644619,-2.1133901e-05,-0.00040138865
0.00024589922,-1.976061e-05,0.00018867779
0.00042671873,-1.5182973e-05,0.00036766578
7.6523786e-05,-1.0910511e-05,2.0218373e-05
-0.00037178613,-6.17981e-06,-0.0004245825
-0.00041069652,-1.5335561e-05,-0.00046562913
0.00017463924,-2.403307e-05,9.880257e-05
0.00044075682,-2.1744252e-05,0.0003624778
0.00012260629,-2.1439077e-05,5.363512e-05
-0.00033302832,-1.2741566e-05,-0.0003971157
-0.0004483862,-1.3351918e-05,-0.000511406
0.000101243975,-2.6169302e-05,1.6098023e-05
0.000448844,-1.7014028e-05,0.00035378028
0.00017357111,-1.0452748e-05,8.567906e-05
-0.0002759595,-1.5945912e-05,-0.00035271217
-0.00047264816,-1.823473e-05,-0.00055107975
2.8763296e-05,-2.3727895e-05,-6.980992e-05
0.00044823362,-1.9302846e-05,0.0003423362
0.00021568681,-1.4114858e-05,0.00011284066
-0.00023109818,-1.7014028e-05,-0.00032066824
-0.0004905014,-2.1439077e-05,-0.00057839346
-5.1651958e-05,-2.632189e-05,-0.00015663386
0.00043785764,-1.8082143e-05,0.00032295706
0.0002607007,-1.8692494e-05,0.00015312433
-0.00017952253,-1.1520863e-05,-0.00028084233
-0.00048806003,-1.030016e-05,-0.00058510737
-0.0001274891,-1.8387318e-05,-0.0002361336
0.00041344357,-2.479601e-05,0.00029228642
0.00029915335,-1.899767e-05,0.00018562604
-0.00013282968,-1.2131215e-05,-0.00023949052
-0.00048760226,-1.7471792e-05,-0.0005928893
-0.00020988799,-1.9608022e-05,-0.0003310447
0.00036934426,-2.037096e-05,0.00023384477
0.00033516457,-1.396227e-05,0.00021187116
-8.7204935e-05,-1.8539906e-05,-0.00020042706
-0.00047859957,-1.3809681e-05,-0.0005832763
-0.00028038456,-2.2507193e-05,-0.00039299586
0.00032967093,-2.2049428e-05,0.0001975279
0.00037132838,-1.60985e-05,0.00024330521
-2.845812e-05,-2.0981313e-05,-0.00014808893
-0.00044304563,-1.0605336e-05,-0.00055245304
-0.00033623268,-1.6556263e-05,-0.0004534216
0.00027962163,-1.8692494e-05,0.00014595271
0.00039925196,-1.5488149e-05,0.00026939824
2.5406362e-05,-1.4420033e-05,-9.727621e-05
-0.0004096284,-5.874634e-06,-0.0005259023
-0.00039177516,-1.47252085e-05,-0.0005121689
0.00021934892,-2.0676138e-05,8.2169536e-05
0.00042366696,-1.7471792e-05,0.00029015017
7.896519e-05,-1.6861439e-05,-4.4937613e-05
-0.0003682766,-1.0910511e-05,-0.00048241427
-0.0004361792,-1.2283803e-05,-0.00055107975
0.00015068293,-1.5945912e-05,1.8844605e-05
0.00043434813,-1.6251088e-05,0.0003034258
0.00012397957,-1.823473e-05,1.2969971e-06
-0.00032417823,-1.60985e-05,-0.00043785764
-0.00046913864,-2.2202015e-05,-0.00058434444
7.37772e-05,-2.0065785e-05,-5.7602883e-05
0.00043816282,-1.6403676e-05,0.00030403616
0.00017051936,-1.9455434e-05,4.5395376e-05
-0.00028007937,-1.5488149e-05,-0.0003972683
-0.00049416354,-1.6861439e-05,-0.00060891104
-4.806519e-06,-1.762438e-05,-0.00013298226
0.00043572142,-1.6251088e-05,0.0003035784
0.00021812822,-1.4114858e-05,9.590245e-05
-0.00022301055,-1.1063099e-05,-0.00033180762
-0.000493248,-1.2741566e-05,-0.0006061645
-7.972813e-05,-1.823473e-05,-0.0002133975
0.00042778684,-1.319933e-05,0.00029503347
0.00027534916,-1.2588978e-05,0.00017479181
-0.0001612115,-1.3504506e-05,-0.0002224002
-0.00048134616,-1.3351918e-05,-0.0005295644
-0.00013420296,-1.6556263e-05,-0.00018974592
0.00042153074,-2.2354603e-05,0.00035805276
0.0003347068,-1.8082143e-05,0.00028435185
-9.483481e-05,-8.468628e-06,-0.00013664438
-0.00046623946,-1.2283803e-05,-0.00049034884
-0.00021065093,-1.6556263e-05,-0.00024162675
0.00037087014,-1.9913197e-05,0.00030556205
0.00035133888,-1.2131215e-05,0.00028633547
-6.5690045e-05,-1.5640737e-05,-0.00011924935
-0.00046608687,-1.4572621e-05,-0.0005008774
-0.00029671146,-1.5640737e-05,-0.0003319602
0.0003171587,-2.189684e-05,0.00026741458
0.00037636378,-1.6403676e-05,0.00032280447
-2.2507193e-05,-1.47252085e-05,-8.323765e-05
-0.0004438086,-1.1520863e-05,-0.0005111008
-0.00036690332,-1.0452748e-05,-0.0004587622
0.00025062944,-1.7014028e-05,0.00013389779
0.0003998623,-1.60985e-05,0.0002935076
3.5171986e-05,-1.1978626e-05,-6.0654642e-05
-0.00040032007,-1.1978626e-05,-0.0004920273
-0.0004099336,-1.3351918e-05,-0.0005130844
0.00019188214,-2.4338247e-05,6.919957e-05
0.00042198852,-1.3657093e-05,0.00028313114
7.9270365e-05,-1.2131215e-05,-8.567906e-05
-0.00036934472,-1.9608022e-05,-0.000534142
-0.00045067503,-1.8539906e-05,-0.00059502554
0.00012306405,-2.1439077e-05,-3.5477162e-05
0.00043282224,-2.0218373e-05,0.0002681775
0.00013450814,-1.2131215e-05,-1.5640737e-05
-0.00031700614,-9.231568e-06,-0.0004587622
-0.00047875216,-1.7471792e-05,-0.0006159306
4.6616078e-05,-2.037096e-05,-0.000108720786
0.00043572142,-1.5945912e-05,0.00027946904
0.00018059064,-8.621216e-06,2.9678822e-05
-0.00026405766,-1.396227e-05,-0.0003986416
-0.0004940109,-1.4420033e-05,-0.00063210493
-2.9373647e-05,-1.9455434e-05,-0.00017494489
0.00042946532,-1.8845083e-05,0.0002747388
0.00023125077,-9.994984e-06,9.590245e-05
-0.00021507598,-1.5945912e-05,-0.0003484397
-0.0005027085,-1.0605336e-05,-0.00061898236
-0.000108720786,-2.0981313e-05,-0.00025062944
0.0004145117,-2.1439077e-05,0.00027824834
0.00028740359,-1.0605336e-05,0.00014671565
-0.00012474251,-1.5182973e-05,-0.00023201371
-0.00043953612,-1.6861439e-05,-0.00045815183
-0.00010795784,-2.1439077e-05,6.1265e-05
0.0005069809,-2.2202015e-05,0.0008593121
0.0004970627,-1.9608022e-05,0.0011553374
0.00012596321,-9.536743e-06,0.0012117954
-0.0002422371,-1.5182973e-05,0.0012749677
-2.9526234e-05,-2.0523548e-05,0.0016420995
0.0004961472,-1.24363905e-05,0.0016420995
0.00039833641,-1.1826039e-05,0.0016420995
-0.00016624738,-8.163453e-06,0.0010373851
-0.0007193866,-1.1215688e-05,-0.00039955715
-0.0006430917,-1.6556263e-05,-0.00094522006
-3.654528e-05,-2.1744252e-05,-0.00052636006
7.545567e-05,-1.899767e-05,-0.00025047685
-0.00024452593,-1.2741566e-05,-0.0005046921
-0.00057381537,-1.5030385e-05,-0.00073525624
-0.00045769408,-1.7319204e-05,-0.0006162358
0.00020851422,-2.2507193e-05,0.00012397957
0.00040901758,-2.2964956e-05,0.0003662925
6.553745e-05,-1.5640737e-05,5.531359e-05
-0.0003708706,-1.3504506e-05,-0.0003910122
-0.0004010835,-1.5030385e-05,-0.00042992306
0.00019554426,-2.3270131e-05,0.0001363392
0.00045265915,-2.1744252e-05,0.00039543727
0.00013038826,-1.4267445e-05,7.7591896e-05
-0.00031441214,-9.07898e-06,-0.00035912087
-0.00042793943,-1.3809681e-05,-0.00047310593
0.00013435555,-2.4948598e-05,7.25565e-05
0.0004735637,-1.6556263e-05,0.00041100217
0.00019005108,-1.0910511e-05,0.00013740778
-0.0002643628,-1.4420033e-05,-0.00030418875
-0.0004471655,-1.9302846e-05,-0.0004869919
6.385899e-05,-1.976061e-05,1.2893677e-05
0.0004711223,-1.899767e-05,0.00041664793
0.0002384224,-1.8845083e-05,0.00019661237
-0.0002121768,-1.7471792e-05,-0.00024315262
-0.00045983077,-1.2283803e-05,-0.0004843979
-1.0452748e-05,-1.9150259e-05,-4.9668313e-05
0.000467155,-1.8082143e-05,0.0004258032
0.00028267337,-9.536743e-06,0.00025032426
-0.00015815975,-8.468628e-06,-0.00017631818
-0.0004587622,-8.31604e-06,-0.00047127486
-8.52213e-05,-1.7319204e-05,-0.00010658408
0.00044945482,-1.9608022e-05,0.00042015745
0.00033394387,-1.7776967e-05,0.00031532766
-9.5750336e-05,-1.2741566e-05,-0.00010231161
-0.00044640258,-1.1826039e-05,-0.00044014645
-0.00015541316,-1.762438e-05,-0.00015785456
0.0004245825,-2.4490835e-05,0.00041268065
0.0003772793,-2.2507193e-05,0.00037636378
-4.0665152e-05,-2.1133901e-05,-2.632189e-05
-0.00042198852,-1.7776967e-05,-0.0003960476
-0.00022301055,-1.7014028e-05,-0.00020241071
0.00038139918,-1.823473e-05,0.00039513208
0.00041680053,-1.8082143e-05,0.0004409094
1.5945436e-05,-1.47252085e-05,5.7754994e-05
-0.0003972683,-1.3809681e-05,-0.00034050512
-0.00027809574,-1.8692494e-05,-0.0002173648
0.00034172586,-1.9302846e-05,0.00039696315
0.00045510055,-2.1133901e-05,0.0005233078
7.911778e-05,-1.5335561e-05,0.00017051936
-0.00034813455,-1.319933e-05,-0.0002373543
-0.00031960013,-1.8387318e-05,-0.00020103742
0.0002945757,-1.899767e-05,0.00041191772
0.00049172214,-1.396227e-05,0.00062798505
0.000147326,-1.4267445e-05,0.0003058672
-0.00029228642,-1.9150259e-05,-0.000105363375
-0.00034752418,-2.3727895e-05,-0.00014274789
0.00024620438,-2.3727895e-05,0.00045311693
0.00052544405,-1.9150259e-05,0.000755703
0.00021568681,-1.5488149e-05,0.00047325852
-0.0002297249,-1.2741566e-05,5.9281352e-05
-0.0003612571,-1.6556263e-05,-5.1194194e-05
0.00018867779,-2.0981313e-05,0.00050041964
0.00054512883,-1.9608022e-05,0.00087014586
0.00027641727,-1.4572621e-05,0.0006267643
-0.0001721983,-1.1368275e-05,0.00020241071
-0.00038139918,-1.7014028e-05,6.17981e-06
0.0001148243,-1.8082143e-05,0.0004967575
0.00054528145,-2.1133901e-05,0.0009314871
0.0003186846,-1.2741566e-05,0.00072167494
-0.00012962533,-8.468628e-06,0.00028709843
-0.00040016748,-1.8387318e-05,2.479601e-05
1.9454958e-05,-2.1744252e-05,0.00043190672
0.00051049044,-2.1591664e-05,0.0009114976
0.00034431985,-1.5335561e-05,0.0007465477
-9.941245e-05,-1.7471792e-05,0.00029549122
-0.00042763425,-1.2588978e-05,-4.6005727e-05
-8.186436e-05,-1.7776967e-05,0.00026176884
0.0004558635,-2.4948598e-05,0.00075783924
0.0003562217,-1.5182973e-05,0.0006354618
-7.4234966e-05,-1.7929555e-05,0.00017906477
-0.0004459448,-1.9150259e-05,-0.0002147708
-0.00018257428,-2.3117544e-05,2.6702883e-06
0.0003975735,-1.9150259e-05,0.0005367365
0.00037422753,-1.396227e-05,0.000490654
-4.2343618e-05,-1.9913197e-05,5.3329946e-05
-0.000441062,-1.6708851e-05,-0.00036293603
-0.00026161576,-1.6251088e-05,-0.00021293975
0.0003458457,-1.7929555e-05,0.00035820535
0.0003997097,-1.0605336e-05,0.00040062526
3.2806397e-06,-1.1978626e-05,2.3651123e-06
-0.00041664747,-1.5945912e-05,-0.00042381955
-0.0003284507,-1.8539906e-05,-0.00035057595
0.0002848096,-1.7319204e-05,0.00023781206
0.00042031004,-9.07898e-06,0.0003723965
5.1193718e-05,-8.468628e-06,7.400513e-06
-0.00038292506,-1.3657093e-05,-0.00042061522
-0.00038155177,-1.9150259e-05,-0.00042504026
0.00022255327,-2.2964956e-05,0.00015922786
0.0004421301,-1.8539906e-05,0.00038170436
0.00010612679,-1.47252085e-05,5.4245476e-05
-0.00034004738,-1.5182973e-05,-0.0003833828
-0.00042381955,-1.5335561e-05,-0.00046791794
0.00015297176,-2.2354603e-05,9.2392926e-05
0.00045632126,-1.6251088e-05,0.0003960476
0.00015465022,-1.3504506e-05,0.00010368539
-0.00029274417,-1.3351918e-05,-0.0003348594
-0.0004511328,-1.2741566e-05,-0.0004901962
7.972813e-05,-1.8082143e-05,2.479601e-05
0.0004608989,-1.4114858e-05,0.00040535547
0.0002062254,-1.3504506e-05,0.00015922786
-0.00024315262,-9.994984e-06,-0.00027931645
-0.00046913864,-1.2283803e-05,-0.0005008774
6.332398e-06,-1.7929555e-05,-4.020739e-05
0.00045891525,-1.24363905e-05,0.0004074917
0.00025734378,-1.030016e-05,0.00021477033
-0.00019111921,-1.4572621e-05,-0.00022484208
-0.00047539474,-1.3657093e-05,-0.00050667574
-7.1946146e-05,-1.6556263e-05,-0.000118333825
0.0004409094,-1.8692494e-05,0.0003846035
0.0002957964,-1.3351918e-05,0.00024757767
-0.00014229013,-1.3657093e-05,-0.00018226911
-0.00047783615,-1.3351918e-05,-0.0005127793
-0.0001523614,-2.2202015e-05,-0.0002025633
0.00041176513,-1.8692494e-05,0.0003495078
0.00033623268,-1.24363905e-05,0.00028068974
-9.102011e-05,-1.1215688e-05,-0.00013954354
-0.00046425583,-1.5182973e-05,-0.0005107956
-0.00022575761,-2.0218373e-05,-0.00028618288
0.00036766578,-2.189684e-05,0.00029167606
0.00036888648,-1.7014028e-05,0.00029518607
-4.0512565e-05,-9.07898e-06,-0.000105210784
-0.00044411374,-1.1826039e-05,-0.0005068283
-0.00029610112,-1.8539906e-05,-0.0003711758
0.00031822684,-2.2354603e-05,0.00022789383
0.00040047267,-1.8082143e-05,0.00031258108
1.2283326e-05,-1.4420033e-05,-6.782627e-05
-0.00041390088,-1.5640737e-05,-0.0004898911
-0.00035164406,-2.0065785e-05,-0.00043694212
0.00026512577,-1.899767e-05,0.00016273737
0.0004247351,-1.823473e-05,0.00032265187
6.5690045e-05,-1.1520863e-05,-2.8763296e-05
-0.00037392238,-1.1368275e-05,-0.00046181443
-0.0004007783,-2.265978e-05,-0.00049248507
0.00019859601,-2.3727895e-05,8.9493755e-05
0.0004424353,-1.3351918e-05,0.00033394387
0.00011848641,-1.1368275e-05,1.7929078e-05
-0.00033058692,-1.3046742e-05,-0.00042549803
-0.00044167234,-1.6861439e-05,-0.00053826236
0.00012336922,-2.2202015e-05,9.231568e-06
0.00045128586,-2.1286489e-05,0.00033379128
0.00016044856,-1.0605336e-05,5.3329946e-05
-0.00029167606,-1.823473e-05,-0.0003911648
-0.00047158005,-1.6861439e-05,-0.0005722895
4.2343618e-05,-1.6251088e-05,-7.25565e-05
0.00044335081,-2.4490835e-05,0.00032387258
0.000206378,-1.7014028e-05,9.5749856e-05
-0.00024193192,-1.5640737e-05,-0.00034569312
-0.0004898911,-1.899767e-05,-0.000589685
-3.6850455e-05,-2.5864125e-05,-0.0001537347
0.00043450072,-2.2964956e-05,0.0003095293
0.00024467852,-2.0218373e-05,0.00012916756
-0.00019630718,-1.7014028e-05,-0.00030235722
-0.0004969101,-1.7471792e-05,-0.0005991454
-0.00011711312,-2.0065785e-05,-0.0002335396
0.00041084958,-1.7471792e-05,0.00028664066
0.00028938724,-1.6556263e-05,0.0001700616
-0.00014183235,-1.5030385e-05,-0.00024879837
-0.0004883652,-1.8082143e-05,-0.00058785395
-0.00018623639,-1.9302846e-05,-0.00029854252
0.0003812466,-1.396227e-05,0.000256886
0.0003333335,-1.396227e-05,0.00021370221
-8.461094e-05,-1.1368275e-05,-0.00019447613
-0.00046990157,-1.4114858e-05,-0.00057198433
-0.00026146317,-2.2812368e-05,-0.00037285424
0.00034050512,-2.037096e-05,0.00021568681
0.00036934426,-1.396227e-05,0.00025032426
-3.4561635e-05,-9.536743e-06,-0.0001450367
-0.00044930173,-9.384155e-06,-0.00055123237
-0.00032677222,-1.7166616e-05,-0.0004334326
0.00029137087,-2.1439077e-05,0.00016853571
0.00039299586,-1.319933e-05,0.00027504397
1.1367799e-05,-1.396227e-05,-9.697104e-05
-0.0004160371,-1.6403676e-05,-0.00051644136
-0.0003858242,-1.9913197e-05,-0.00049004366
0.00022575761,-2.479601e-05,0.00010551644
0.00041344357,-1.8692494e-05,0.00029671192
6.721592e-05,-2.0828726e-05,-3.776598e-05
-0.00037682152,-1.5335561e-05,-0.00047280075
-0.00042610837,-1.6251088e-05,-0.0005230031
0.00016823054,-2.555895e-05,5.8976177e-05
0.00044075682,-2.1286489e-05,0.00033180715
0.0001273365,-1.4877797e-05,2.037096e-05
-0.00032021047,-1.5182973e-05,-0.00041649488
-0.00044533444,-1.6556263e-05,-0.0005281911
0.00010841561,-2.189684e-05,4.0512565e-05
0.00046517135,-2.4490835e-05,0.00041496946
0.00019325543,-1.8539906e-05,0.00015678645
-0.00025261307,-1.5335561e-05,-0.00027550175
-0.00045418454,-1.6708851e-05,-0.00047371627
4.1122916e-05,-2.1439077e-05,8.468628e-06
0.00046425583,-1.762438e-05,0.00043160154
0.0002347603,-1.3809681e-05,0.00022392656
-0.00022011138,-1.319933e-05,-0.00023872757
-0.0004920273,-1.5182973e-05,-0.0005197988
-6.584263e-05,-1.8692494e-05,-0.00011192513
0.00042137815,-1.8387318e-05,0.00037270167
0.00025398686,-1.6708851e-05,0.0002259102
-0.00018196393,-1.3351918e-05,-0.00019951153
-0.0004981308,-1.1673451e-05,-0.0005121689
-0.00014946223,-2.0676138e-05,-0.00018760968
0.0003937588,-1.8387318e-05,0.0003333335
0.00029091313,-1.7166616e-05,0.00022575761
-0.0001363392,-1.319933e-05,-0.0002085147
-0.00049553683,-9.536743e-06,-0.0005690851
-0.00022575761,-2.1133901e-05,-0.00029869511
0.00036446145,-2.0065785e-05,0.00027702763
0.00033440161,-1.60985e-05,0.00024376299
-7.804966e-05,-1.2894154e-05,-0.00016151667
-0.00046959642,-2.189684e-05,-0.0005533686
-0.00029137087,-2.5711537e-05,-0.00040932323
0.00031166556,-2.0218373e-05,0.00015190363
0.00036552956,-1.6556263e-05,0.00021843339
-2.6627065e-05,-1.5335561e-05,-0.00014702082
-0.00044640258,-1.3504506e-05,-0.0005617609
-0.0003533225,-1.8082143e-05,-0.00048012545
0.0002570386,-2.1133901e-05,0.000116502764
0.0003948269,-1.3504506e-05,0.00026009037
2.6779653e-05,-1.2894154e-05,-9.6818454e-05
-0.0004111543,-1.2894154e-05,-0.00052666524
-0.00040383008,-2.1133901e-05,-0.0005220876
0.00019966412,-2.403307e-05,6.538487e-05
0.00041390135,-1.6556263e-05,0.00028297855
7.331944e-05,-1.762438e-05,-4.6768666e-05
-0.00037438012,-1.1673451e-05,-0.0004819565
-0.0004537268,-8.468628e-06,-0.0005632868
0.00012260629,-1.6556263e-05,7.629395e-08
0.00041985227,-1.7166616e-05,0.0002947283
0.00011772347,-1.7014028e-05,1.0147095e-05
-0.00033379128,-1.4267445e-05,-0.00043938353
-0.00048592378,-1.6403676e-05,-0.0005820556
7.057286e-05,-1.899767e-05,-4.875231e-05
0.00048073533,-1.5182973e-05,0.0003923855
0.00023003007,-1.9455434e-05,0.00027443364
-0.00018852521,-1.3504506e-05,6.7978865e-05
-0.0003572898,-1.2894154e-05,0.00010612679
0.00018120099,-1.9608022e-05,0.0009766537
0.00066292816,-1.5945912e-05,0.0016420995
0.000448844,-1.7014028e-05,0.0016420995
-4.0359977e-05,-1.1215688e-05,0.0016420995
-0.0004135957,-1.1673451e-05,0.001523995
-0.0001387806,-1.6708851e-05,0.0013877321
0.00020302106,-1.3809681e-05,0.001138857
-7.1946146e-05,-7.553101e-06,5.01256e-05
-0.0005561152,-1.07579235e-05,-0.0008820477
-0.00087640196,-1.60985e-05,-0.0011539636
-0.0005045395,-1.9150259e-05,-0.0007206073
0.00015983821,-2.1286489e-05,-2.1439077e-05
0.00017448665,-1.6251088e-05,4.6921254e-05
-0.00018760968,-1.3809681e-05,-0.00026863528
-0.00051552587,-1.5030385e-05,-0.0005181203
-0.00024940874,-1.2894154e-05,-0.00024391557
0.0003533225,-1.47252085e-05,0.0003496604
0.0003534751,-1.6556263e-05,0.0003373008
-4.7226433e-05,-1.7471792e-05,-6.1112405e-05
-0.00045082762,-1.60985e-05,-0.0004683757
-0.00029610112,-1.4572621e-05,-0.00032280493
0.00031822684,-1.8539906e-05,0.00027382327
0.00039635279,-1.4267445e-05,0.0003585105
7.0953374e-06,-1.47252085e-05,-2.2812368e-05
-0.0004184785,-1.5640737e-05,-0.00043801023
-0.00035423806,-1.8082143e-05,-0.0003798733
0.0002608533,-1.9608022e-05,0.00022087479
0.00042015745,-1.6251088e-05,0.0003835354
6.141758e-05,-1.5335561e-05,3.5934925e-05
-0.00037880518,-1.1368275e-05,-0.0003936062
-0.00040138865,-1.7471792e-05,-0.0004209204
0.00020073225,-2.1591664e-05,0.00016731501
0.00044655515,-1.4114858e-05,0.00041557982
0.00011818123,-1.3351918e-05,9.864998e-05
-0.00033257058,-1.2283803e-05,-0.0003411155
-0.00043450072,-1.3809681e-05,-0.0004422827
0.0001335926,-1.6556263e-05,0.00011253548
0.00046166184,-1.396227e-05,0.0004425879
0.00017570735,-1.6403676e-05,0.00016853571
-0.00027183964,-1.2894154e-05,-0.00026802495
-0.0004450293,-8.31604e-06,-0.0004370947
7.1335795e-05,-1.1215688e-05,6.660557e-05
0.00047432663,-1.2283803e-05,0.00046761276
0.000235981,-9.842396e-06,0.00024406816
-0.00021431304,-6.17981e-06,-0.00019279767
-0.0004560156,-1.2588978e-05,-0.00042687132
-3.128052e-06,-1.8539906e-05,1.3046265e-05
0.00046700242,-1.6861439e-05,0.00048043014
0.00028297855,-1.2894154e-05,0.00031151297
-0.00015953302,-1.0147572e-05,-0.00011772347
-0.00045952562,-1.0147572e-05,-0.00040657664
-7.682896e-05,-2.0828726e-05,-3.059435e-05
0.00045922044,-2.0218373e-05,0.0005024033
0.00033546973,-1.1978626e-05,0.00039146998
-9.2240814e-05,-1.762438e-05,-1.7166616e-05
-0.00043556883,-1.5793325e-05,-0.00034294656
-0.00013466073,-2.2354603e-05,-4.447985e-05
0.0004398413,-2.0981313e-05,0.00052925973
0.0003920803,-1.3351918e-05,0.00050041964
-2.4948598e-05,-1.9302846e-05,0.00010627938
-0.0004062715,-1.762438e-05,-0.00025352862
-0.00018776227,-1.9608022e-05,-2.6627065e-05
0.00041725827,-2.0828726e-05,0.000579309
0.00044625,-1.7014028e-05,0.0006330204
4.4785025e-05,-1.3046742e-05,0.00026237918
-0.00036278344,-1.2283803e-05,-0.000116502764
-0.00023888017,-2.0523548e-05,2.2049428e-05
0.0003807888,-2.0523548e-05,0.0006487375
0.0004901962,-1.3351918e-05,0.00078408484
0.00011055184,-1.0910511e-05,0.0004348059
-0.0003197527,-9.384155e-06,3.12047e-05
-0.0002822156,-1.2894154e-05,8.232213e-05
0.00033058645,-2.1591664e-05,0.0006961928
0.000518425,-1.8845083e-05,0.00089974835
0.00016807795,-1.7014028e-05,0.00057290035
-0.0002773328,-1.5793325e-05,0.00014641047
-0.00032936622,-1.4877797e-05,0.00010368539
0.0002584119,-2.1286489e-05,0.0006847487
0.00052849675,-1.8692494e-05,0.0009621578
0.0002075987,-8.621216e-06,0.0006554513
-0.00024971392,-1.4572621e-05,0.00020607281
-0.0003823147,-1.8082143e-05,6.980992e-05
0.0001612115,-1.9150259e-05,0.00058648066
0.0005046921,-1.8692494e-05,0.00091302354
0.00022652055,-1.5182973e-05,0.0006218815
-0.00023140336,-1.8539906e-05,0.00014518977
-0.0004412146,-1.6403676e-05,-9.102011e-05
4.570055e-05,-1.6708851e-05,0.0003470664
0.00046807053,-1.8539906e-05,0.0007309838
0.00023933793,-1.3657093e-05,0.00047692063
-0.00021461822,-1.2741566e-05,-2.0599366e-06
-0.00048226168,-2.0218373e-05,-0.00029900027
-5.6229594e-05,-1.9302846e-05,8.049107e-05
0.00042763425,-1.8539906e-05,0.0005297175
0.00026176884,-1.1673451e-05,0.00034630348
-0.00018471052,-1.1826039e-05,-0.00011512948
-0.00050423434,-1.976061e-05,-0.0004485388
-0.00015022517,-2.2049428e-05,-0.00012550545
0.00039024928,-2.342272e-05,0.00038887598
0.00029152347,-2.4338247e-05,0.00028923465
-0.00013908578,-2.0218373e-05,-0.0001425953
-0.0004982834,-2.0218373e-05,-0.00050530245
-0.00022957231,-2.3117544e-05,-0.00025444414
0.00035393288,-2.2354603e-05,0.00031288626
0.00032783987,-1.9608022e-05,0.00029137087
-8.293248e-05,-1.4420033e-05,-0.000113756185
-0.00048165134,-1.1826039e-05,-0.0005046921
-0.00029869511,-1.5030385e-05,-0.0003321128
0.00031166556,-2.2964956e-05,0.00026527836
0.00036140968,-1.3809681e-05,0.00032021047
-3.3798697e-05,-1.5182973e-05,-6.5079694e-05
-0.00045174314,-1.07579235e-05,-0.00047432663
-0.00036018898,-1.4267445e-05,-0.00038796046
0.0002556653,-2.3270131e-05,0.00021400739
0.00039314845,-1.4572621e-05,0.00035515358
2.2507193e-05,-1.7319204e-05,-5.4168704e-06
-0.00041527417,-1.4114858e-05,-0.00043297483
-0.00041176463,-1.8539906e-05,-0.0004311438
0.00019356061,-2.5406362e-05,0.00015846491
0.0004085598,-1.7319204e-05,0.00037773707
6.736851e-05,-1.9455434e-05,4.646349e-05
-0.00037697412,-2.1133901e-05,-0.00038689232
-0.00045464232,-1.4572621e-05,-0.00046761276
0.00012092782,-2.1286489e-05,9.056187e-05
0.00041939452,-2.0218373e-05,0.00038887598
0.00012031746,-1.2894154e-05,9.8497396e-05
-0.00032661963,-1.4114858e-05,-0.0003398948
-0.00048683933,-1.7319204e-05,-0.0005013352
4.8904898e-05,-2.479601e-05,1.701355e-05
0.00042870236,-1.8387318e-05,0.00039177516
0.00017036677,-1.2588978e-05,0.00014091731
-0.00028114748,-5.4168704e-06,-0.0003047991
-0.0005072861,-1.4114858e-05,-0.0005292592
-3.0441763e-05,-2.1439077e-05,-7.164097e-05
0.00041878416,-1.47252085e-05,0.00036644508
0.00021522904,-1.1978626e-05,0.00017036677
-0.00023201371,-1.6708851e-05,-0.00027061894
-0.0005168991,-1.7929555e-05,-0.0005544367
-0.00011223031,-1.5030385e-05,-0.00016655255
0.0003998623,-2.0218373e-05,0.0003336387
0.00025505497,-1.1368275e-05,0.00019539167
-0.00018181134,-1.2131215e-05,-0.00023399736
-0.00051934103,-1.0605336e-05,-0.0005690851
-0.00019569683,-2.1439077e-05,-0.00025978472
0.0003661399,-2.0828726e-05,0.00028725102
0.00028953984,-1.0452748e-05,0.00021614457
-0.0001335926,-1.396227e-05,-0.00020180036
-0.000506218,-1.3046742e-05,-0.0005686274
-0.000267262,-2.1591664e-05,-0.00034019997
0.00032692435,-2.769518e-05,0.00023750687
0.00033165456,-1.7319204e-05,0.00024711993
-7.728672e-05,-1.3351918e-05,-0.00015434505
-0.00048012545,-1.2588978e-05,-0.00055153755
-0.0003286033,-9.842396e-06,-0.00040947582
0.00028313114,-1.4420033e-05,0.00018562604
0.00036278297,-1.2741566e-05,0.0002697034
-2.5711537e-05,-1.4114858e-05,-0.000110399254
-0.00045265869,-1.6251088e-05,-0.00053124287
-0.00039040187,-2.0981313e-05,-0.00047524215
0.00022453691,-2.403307e-05,0.0001236744
0.00038826562,-1.9913197e-05,0.00029030276
2.5253774e-05,-1.7166616e-05,-6.202793e-05
-0.00041390088,-1.4114858e-05,-0.00049385836
-0.00044182493,-1.1978626e-05,-0.0005254445
0.00015251398,-1.8082143e-05,5.3482534e-05
0.00040306666,-1.7776967e-05,0.0003032732
7.209874e-05,-1.0147572e-05,-1.8539906e-05
-0.0003748379,-1.2283803e-05,-0.00045799924
-0.00048348238,-7.400513e-06,-0.00056771183
8.186436e-05,-1.2741566e-05,-1.8692494e-05
0.00041344357,-1.6403676e-05,0.0003098345
0.00012397957,-1.1673451e-05,2.9984e-05
-0.00032509377,-8.163453e-06,-0.0004099336
-0.0005072861,-7.400513e-06,-0.00059060054
6.6375737e-06,-1.5182973e-05,-9.2393406e-05
0.00041237546,-8.621216e-06,0.0003096819
0.0001749444,-9.536743e-06,8.14066e-05
-0.00027489138,-1.1826039e-05,-0.00036049416
-0.00052529195,-1.2283803e-05,-0.0006067748
-7.286167e-05,-2.0828726e-05,-0.00016884138
0.0004026089,-1.7166616e-05,0.0002996111
0.00022087479,-1.24363905e-05,0.00012657356
-0.00022133208,-1.4877797e-05,-0.00030800345
-0.0005262075,-6.7901615e-06,-0.00060646964
-0.00014854671,-1.5182973e-05,-0.0002436104
0.00038155177,-2.0523548e-05,0.0002785535
0.00025886967,-1.1368275e-05,0.00016609431
-0.00017235089,-2.1133901e-05,-0.00025764847
-0.0005210195,-1.6403676e-05,-0.00059899286
-0.00022621537,-1.4267445e-05,-0.00031502248
0.00035133888,-1.899767e-05,0.00025078203
0.0003035784,-1.1978626e-05,0.00021110821
-0.000111467365,-1.0147572e-05,-0.00019340802
-0.000493248,-1.1673451e-05,-0.00056923775
-0.00028282596,-1.3657093e-05,-0.00036766627
0.0003260088,-1.2894154e-05,0.00022880937
0.00035774757,-1.7776967e-05,0.0002735181
-4.1275503e-05,-1.5182973e-05,-0.000121843346
-0.00045662597,-1.3657093e-05,-0.00053505757
-0.00034172586,-1.9608022e-05,-0.0004196992
0.0002733655,-1.823473e-05,0.00020576765
0.0003821621,-1.8082143e-05,0.00034676126
6.4849855e-06,-1.24363905e-05,-1.4267445e-05
-0.00042320922,-1.0452748e-05,-0.00042671873
-0.00039146998,-1.24363905e-05,-0.0003987942
0.00022392656,-1.976061e-05,0.00020149518
0.00041619016,-1.1826039e-05,0.00039894678
6.24857e-05,-1.4877797e-05,6.767369e-05
-0.0003870449,-1.1520863e-05,-0.0003762112
-0.0004476233,-6.7901615e-06,-0.00045952562
0.0001325245,-1.976061e-05,0.00010139657
0.00040794947,-1.7776967e-05,0.00037941552
9.162998e-05,-1.5335561e-05,8.369541e-05
-0.00035423806,-1.2283803e-05,-0.00034782937
-0.00048821262,-1.7014028e-05,-0.0004831772
5.4855827e-05,-1.8692494e-05,3.7460806e-05
0.0004100857,-1.6251088e-05,0.0003785
0.00013420296,-4.653931e-06,0.0001009388
-0.00031746388,-1.030016e-05,-0.00035790016
-0.0005230031,-1.5945912e-05,-0.00057579903
-2.5864125e-05,-2.2812368e-05,-8.6747175e-05
0.000403677,-2.0676138e-05,0.00034386208
0.00018364239,-1.5488149e-05,0.00012306405
-0.00026390507,-1.6708851e-05,-0.00032509377
-0.000529717,-1.0910511e-05,-0.00059014274
-0.00010688925,-1.9913197e-05,-0.00019935895
0.0003809414,-1.9302846e-05,0.00024773026
0.00021797563,-1.7014028e-05,8.7357526e-05
-0.00021873809,-1.4267445e-05,-0.00032082084
-0.0005359731,-1.5182973e-05,-0.00063149456
-0.00019005108,-2.2354603e-05,-0.00030083134
0.00035637428,-2.2507193e-05,0.00023521806
0.00026421025,-1.47252085e-05,0.00015403987
-0.00016166926,-1.6708851e-05,-0.00026100542
-0.0005278859,-1.7776967e-05,-0.0006211186
-0.00026482058,-2.1744252e-05,-0.00037010768
0.00032173636,-2.2354603e-05,0.000206378
0.00030022147,-1.5488149e-05,0.00019066143
-0.00011299324,-1.4267445e-05,-0.00021080353
-0.0005107956,-5.569458e-06,-0.00060173945
-0.0003373008,-1.3657093e-05,-0.00043251706
0.00027489138,-2.1744252e-05,0.0001638055
0.00033058645,-1.4420033e-05,0.00022804643
-6.309605e-05,-1.0910511e-05,-0.0001549554
-0.00048226168,-1.6861439e-05,-0.0005648127
-0.00039528467,-1.976061e-05,-0.00048348238
0.00022652055,-1.823473e-05,0.0001223011
0.00039558986,-1.7319204e-05,0.00028908206
5.317736e-05,-1.6708851e-05,7.553101e-06
-0.00037529567,-1.396227e-05,-0.00025627518
-0.00033241799,-1.5640737e-05,-2.7237416e-05
0.00033104423,-2.2354603e-05,0.00085580256
0.0006142521,-1.1978626e-05,0.0015195699
0.00029625418,-1.4572621e-05,0.0016221105
-0.00016472102,-1.7014028e-05,0.0015491724
-0.00031380178,-1.6861439e-05,0.0016420995
0.00015281916,-8.926392e-06,0.0016420995
0.00030144217,-5.569458e-06,0.0016420995
-0.00016929914,-1.396227e-05,0.0006372929
-0.00073250965,-2.822876e-06,-0.0007448693
-0.0009153123,-1.3504506e-05,-0.0011673915
-0.00036568262,-1.6251088e-05,-0.0005597773
7.9880716e-05,-1.2588978e-05,-6.5690045e-05
-6.187535e-05,-1.7471792e-05,-0.00017128278
-0.00043053343,-1.8845083e-05,-0.00051796774
-0.000596704,-2.037096e-05,-0.0006391244
-8.857871e-05,-1.7929555e-05,-8.552647e-05
0.0003934536,-1.899767e-05,0.00040215114
0.00019707013,-1.9608022e-05,0.00021232892
-0.0002423897,-1.6251088e-05,-0.000238575
-0.0005335317,-1.2894154e-05,-0.0005324636
-0.00013313485,-1.1673451e-05,-0.00015342952
0.00038689232,-1.6403676e-05,0.00035683205
0.00025383377,-1.5793325e-05,0.00022652055
-0.00018043804,-1.2131215e-05,-0.00019707013
-0.00051888323,-1.2131215e-05,-0.00053154805
-0.00019447613,-2.1591664e-05,-0.00021751739
0.00037010718,-2.037096e-05,0.00033653787
0.0003020525,-1.1368275e-05,0.00027611208
-0.00011924935,-1.5488149e-05,-0.00013435555
-0.0004937058,-1.7166616e-05,-0.00050118257
-0.0002657361,-1.4877797e-05,-0.00028206303
0.0003360801,-1.4114858e-05,0.00030785086
0.0003434043,-1.2283803e-05,0.0003247881
-6.324864e-05,-9.384155e-06,-7.286167e-05
-0.00046669724,-1.3657093e-05,-0.00046639206
-0.0003235679,-1.9150259e-05,-0.0003296714
0.00028999758,-2.0676138e-05,0.00027290775
0.0003795681,-1.3351918e-05,0.00036919166
-4.806519e-06,-1.5030385e-05,-2.3651123e-06
-0.00043556883,-7.858277e-06,-0.00042183592
-0.00038155177,-1.1826039e-05,-0.0003698025
0.00023460771,-1.5793325e-05,0.00023445512
0.00040215114,-1.1368275e-05,0.0004073391
4.814196e-05,-1.6556263e-05,6.446934e-05
-0.00039192775,-1.47252085e-05,-0.0003633938
-0.00042702392,-1.1368275e-05,-0.00039787867
0.00016777279,-1.7319204e-05,0.00018562604
0.00042259885,-1.6861439e-05,0.00044518188
0.00010002327,-1.7471792e-05,0.00013450814
-0.0003461509,-1.1215688e-05,-0.00029732182
-0.00046288254,-1.1215688e-05,-0.00041008618
0.00010032845,-1.762438e-05,0.00014274837
0.00044060423,1.1444092e-06,0.0004862285
0.00015938045,-9.384155e-06,0.00022377397
-0.00028801395,-1.5640737e-05,-0.00020744659
-0.00047508956,-1.5182973e-05,-0.000386282
4.219103e-05,-1.7319204e-05,0.00012443734
0.00045540574,-1.5793325e-05,0.00054345035
0.00022835161,-1.0452748e-05,0.0003382163
-0.0002159915,-8.621216e-06,-8.705235e-05
-0.00046639206,-1.7776967e-05,-0.0003197527
-1.5030385e-05,-2.3575307e-05,0.00013069344
0.0004685283,-2.1439077e-05,0.0006232548
0.00029381277,-1.396227e-05,0.00047463182
-0.00014564705,-1.7014028e-05,6.431675e-05
-0.00044823362,-1.823473e-05,-0.00021522857
-7.667637e-05,-1.8082143e-05,0.00016441585
0.00046166184,-2.1286489e-05,0.00071343523
0.00035301736,-1.899767e-05,0.00063378335
-7.347202e-05,-1.3809681e-05,0.00023445512
-0.0004259558,-1.2894154e-05,-9.086752e-05
-0.00013710214,-1.60985e-05,0.00020744611
0.0004435034,-1.3351918e-05,0.0007920194
0.00040291407,-1.2283803e-05,0.0007769132
-1.1215688e-05,-9.994984e-06,0.00038155177
-0.00040550853,-5.569458e-06,8.31604e-06
-0.00020820953,-1.8539906e-05,0.00020729352
0.0003997097,-1.8539906e-05,0.00081002526
0.00043907834,-1.8387318e-05,0.0008616009
3.654528e-05,-1.07579235e-05,0.00047524215
-0.00038307763,-9.07898e-06,6.8436624e-05
-0.00027992678,-1.5793325e-05,0.00016304255
0.00033012868,-1.8539906e-05,0.0007514306
0.00044701292,-1.5793325e-05,0.000860838
6.263828e-05,-7.553101e-06,0.0004709697
-0.0003812466,-1.3504506e-05,1.2130738e-05
-0.00036888698,-1.5182973e-05,-5.1116945e-06
0.00023537065,-1.6708851e-05,0.0005527582
0.0004323645,-1.319933e-05,0.00071694475
7.835484e-05,-9.536743e-06,0.0003408103
-0.00037514308,-1.4420033e-05,-0.00013725473
-0.00044304563,-1.6251088e-05,-0.0002361336
0.00013511849,-2.403307e-05,0.0002968645
0.00041725827,-2.0218373e-05,0.00054757023
0.00010673714,-8.773804e-06,0.0002220955
-0.0003473716,6.942749e-06,-0.00024834063
-0.00049660495,-1.7547608e-06,-0.00042046263
5.0430775e-05,-2.5711537e-05,9.26981e-05
0.00041771604,-1.5335561e-05,0.00044274045
0.00015449763,-1.2588978e-05,0.00017555476
-0.00029701664,-1.2741566e-05,-0.00028007937
-0.00050774385,-1.5335561e-05,-0.0004920273
-2.0828726e-05,-2.0828726e-05,-2.8152945e-05
0.00041893675,-2.0981313e-05,0.0003987942
0.00020775129,-1.6251088e-05,0.00019478131
-0.00024422075,-1.2588978e-05,-0.00025200273
-0.0005184255,-1.8387318e-05,-0.0005223928
-0.00010292197,-2.6169302e-05,-0.00012718391
0.0004012356,-2.4185658e-05,0.00036934426
0.00024864578,-1.1978626e-05,0.00022575761
-0.00018669416,-1.1063099e-05,-0.00019920636
-0.00052010396,-1.1978626e-05,-0.0005223928
-0.00018150617,-2.0676138e-05,-0.00019951153
0.0003762112,-2.3575307e-05,0.00034920266
0.00029015017,-1.7929555e-05,0.0002707715
-0.00014152718,-1.3351918e-05,-0.00015022517
-0.0005082016,-8.163453e-06,-0.0005072861
-0.00025658036,-2.0065785e-05,-0.00026558354
0.00033440161,-1.8845083e-05,0.0003110552
0.00032158376,-2.1286489e-05,0.00030663016
-8.964682e-05,-1.6251088e-05,-9.376669e-05
-0.000488823,-1.3809681e-05,-0.00048424533
-0.00032646707,-1.9302846e-05,-0.00032906103
0.00028694584,-1.762438e-05,0.0002710767
0.00034935525,-1.8539906e-05,0.00033791116
-3.4714223e-05,-1.4267445e-05,-4.0512565e-05
-0.00045830442,-1.4420033e-05,-0.00045448972
-0.00038063622,-1.899767e-05,-0.0003871975
0.00023308182,-2.4338247e-05,0.0002112608
0.00038155177,-1.8845083e-05,0.0003611045
2.0218373e-05,-1.5335561e-05,7.0953374e-06
-0.00041649488,-1.1368275e-05,-0.00042381955
-0.00043251706,-1.5030385e-05,-0.00044625
0.00017112971,-2.0218373e-05,0.00013817073
0.00040520288,-1.8692494e-05,0.00036705544
7.3014264e-05,-1.6556263e-05,4.1733267e-05
-0.0003710232,-1.1368275e-05,-0.0003972683
-0.00046791794,-2.189684e-05,-0.0004972153
0.00010154915,-2.2507193e-05,5.1956657e-05
0.00042275144,-1.6251088e-05,0.0003685813
0.00013160898,-2.0676138e-05,8.583165e-05
-0.000324636,-1.6708851e-05,-0.00036781884
-0.0004964524,-1.8692494e-05,-0.00054207706
2.6779653e-05,-2.2812368e-05,-3.6392692e-05
0.00042061522,-1.6556263e-05,0.00035286476
0.000169909,-1.762438e-05,0.000108568194
-0.00027412846,-2.265978e-05,-0.00033028176
-0.00051567843,-1.6556263e-05,-0.00056786445
-5.9891703e-05,-1.9150259e-05,-0.00013405038
0.00041054442,-2.4490835e-05,0.0003298235
0.00021782304,-1.7166616e-05,0.00014518977
-0.00022774126,-1.7166616e-05,-0.00029564335
-0.0005236135,-1.976061e-05,-0.00058815914
-0.00013588143,-2.2964956e-05,-0.00021629668
0.00038384058,-2.555895e-05,0.00029549122
0.00026161625,-1.7319204e-05,0.00018226911
-0.00016868878,-1.1978626e-05,-0.00024803545
-0.000516594,-1.823473e-05,-0.00058892206
-0.00020744659,-2.555895e-05,-0.00028892947
0.00035820535,-1.7776967e-05,0.0002619214
0.0002997637,-1.3504506e-05,0.00021309186
-0.00012352181,-1.4114858e-05,-0.00020195295
-0.00050316623,-1.3809681e-05,-0.00057778315
-0.00028374148,-2.1744252e-05,-0.00036690332
0.00031776907,-2.6474478e-05,0.00021950151
0.00033379128,-1.976061e-05,0.0002423897
-7.37772e-05,-1.5182973e-05,-0.00015602351
-0.00047798874,-1.3351918e-05,-0.0005579462
-0.00035576394,-1.4267445e-05,-0.00044029905
0.0002596326,-2.0218373e-05,0.00015663386
0.00036186745,-1.396227e-05,0.00026039555
-1.9608022e-05,-1.1826039e-05,-0.00010902596
-0.0004476233,-1.5640737e-05,-0.0005243764
-0.0004058137,-1.976061e-05,-0.000490654
0.00020408917,-2.4948598e-05,0.000100175865
0.0003835354,-2.0218373e-05,0.00028206303
3.50194e-05,-1.6861439e-05,-5.3940774e-05
-0.0004058137,-1.1215688e-05,-0.00048531345
-0.0004500647,-1.24363905e-05,-0.0005378046
0.00014320613,-1.9455434e-05,3.5782337e-05
0.00040276148,-1.6556263e-05,0.0003006792
8.26273e-05,-9.231568e-06,-8.773804e-06
-0.0003623257,-1.9608022e-05,-0.00044579222
-0.0004891281,-1.7471792e-05,-0.0005761042
6.0349466e-05,-2.189684e-05,-4.2343618e-05
0.00041023924,-2.0981313e-05,0.00030525686
0.00013191414,-1.2741566e-05,3.1815052e-05
-0.00032295752,-1.6708851e-05,-0.00040901804
-0.0005184255,-1.762438e-05,-0.00059792475
-1.7929555e-05,-1.7014028e-05,-0.000113756185
0.00040184596,-9.536743e-06,0.00029625418
0.00017082454,-1.2894154e-05,7.331944e-05
-0.00027901126,-1.6708851e-05,-0.00036934472
-0.00053261616,-1.7471792e-05,-0.0006147094
-9.5139985e-05,-1.9150259e-05,-0.00018898297
0.00039558986,-1.899767e-05,0.0002983904
0.0002321663,-1.5335561e-05,0.00014076472
-0.00021202423,-2.3575307e-05,-0.0003031206
-0.0005222402,-1.5945912e-05,-0.00060311274
-0.0001599908,-1.899767e-05,-0.00023445512
0.00038429836,-2.3270131e-05,0.00033073904
0.00028831913,-2.5101186e-05,0.00024971392
-0.00013023568,-2.9221059e-05,-0.00015312433
-0.00048744967,-2.9831412e-05,-0.0004995041
-0.00021370269,-3.1815052e-05,-0.00023750687
0.00037438012,-3.196764e-05,0.00034264138
0.0003371482,-2.632189e-05,0.0003247881
-8.537388e-05,-2.0676138e-05,-7.667637e-05
-0.00048104097,-2.8000357e-05,-0.00048043064
-0.00030403616,-3.0136587e-05,-0.00032921362
0.0002997637,-3.059435e-05,0.0002570386
0.0003461509,-2.7084829e-05,0.0003197527
-4.921055e-05,-1.6403676e-05,-6.019688e-05
-0.00046440843,-2.189684e-05,-0.00046776535
-0.0003659878,-2.9068471e-05,-0.0003771267
0.00024574663,-3.2730582e-05,0.00020683576
0.00037025978,-2.9373647e-05,0.00032173636
3.8146973e-07,-2.265978e-05,-4.6768666e-05
-0.00043373776,-2.2202015e-05,-0.0004909592
-0.0004273291,-2.6779653e-05,-0.00048210908
0.00017647077,-2.9221059e-05,0.00011070443
0.000386282,-2.2202015e-05,0.0003122759
4.814196e-05,-1.7471792e-05,-2.189684e-05
-0.0003925381,-1.9608022e-05,-0.00046105147
-0.00047035934,-2.769518e-05,-0.00055138493
0.00010429574,-2.8000357e-05,-2.9068471e-05
0.00039421656,-2.8152945e-05,0.00023918535
9.7428325e-05,-2.1133901e-05,-2.845812e-05
-0.00035255958,-2.479601e-05,-0.00046044114
-0.0005030136,-2.1744252e-05,-0.0006136413
3.654528e-05,-3.196764e-05,-8.9951995e-05
0.00041161253,-3.1052114e-05,0.00028343633
0.00015342952,-1.9455434e-05,3.486681e-05
-0.00029594853,-2.2812368e-05,-0.00040810253
-0.0005170517,-2.0523548e-05,-0.0006256962
-3.6697867e-05,-2.4948598e-05,-0.00015846491
0.00041283324,-2.2964956e-05,0.00028847173
0.00020454694,-1.8387318e-05,8.9035995e-05
-0.00023888017,-1.9302846e-05,-0.0003470664
-0.00052040914,-2.3727895e-05,-0.00061959267
-0.000116045005,-2.8610708e-05,-0.00022789383
0.00039269068,-3.2120228e-05,0.00027580693
0.00024406816,-2.479601e-05,0.0001361866
-0.00019554426,-1.0452748e-05,-0.00029701664
-0.0005298696,-8.773804e-06,-0.00062691694
-0.00019798566,-1.9455434e-05,-0.00031258108
0.00038292506,-1.8692494e-05,0.000264668
0.00033546973,-1.6251088e-05,0.0002559705
-7.911778e-05,-1.1826039e-05,-2.2049428e-05
-0.00042259885,-1.1826039e-05,-0.00017753888
-0.00012321664,-2.0218373e-05,0.0003096819
0.0005373469,-2.0218373e-05,0.0012922102
0.0005809875,-1.47252085e-05,0.0016420995
0.00017174006,-1.4877797e-05,0.0016420995
-0.00027397586,-1.5335561e-05,0.0016420995
-0.00020912505,-1.1978626e-05,0.0016420995
0.0002619214,-1.5640737e-05,0.0016420995
0.00016319515,-7.858277e-06,0.0011808196
-0.0003508811,-6.6375737e-06,-0.00016609479
-0.0008153658,-1.4267445e-05,-0.0010888076
-0.00073357776,-1.9302846e-05,-0.0009836727
-8.689976e-05,-2.2507193e-05,-0.00025703813
0.00016395807,-1.4420033e-05,3.5934925e-05
-0.000110399254,-1.2131215e-05,-0.0002236209
-0.00048653415,-5.1116945e-06,-0.00058541255
-0.00046532394,-1.396227e-05,-0.0005034714
0.0001549554,-1.823473e-05,0.0001337452
0.00041542723,-1.5182973e-05,0.00040459255
8.812046e-05,-1.5335561e-05,7.347202e-05
-0.00035957864,-1.4114858e-05,-0.0003771267
-0.00046395065,-1.5793325e-05,-0.0004901962
9.6970565e-05,-9.384155e-06,5.5161003e-05
0.00042656614,-1.5945912e-05,0.0003783474
0.00014534236,-1.1673451e-05,0.00010231209
-0.0003044939,-9.07898e-06,-0.00033180762
-0.00048165134,-1.1368275e-05,-0.00050774385
3.50194e-05,-2.0218373e-05,-9.842396e-06
0.0004459448,-1.823473e-05,0.00039558986
0.00020103742,-1.2894154e-05,0.00016914606
-0.00024559404,-1.3504506e-05,-0.0002745862
-0.000488823,-9.536743e-06,-0.0005159836
-3.1662465e-05,-1.9302846e-05,-6.919957e-05
0.00044625,-1.7319204e-05,0.00040566066
0.00026680424,-8.621216e-06,0.00023521806
-0.00016899395,-8.468628e-06,-0.00018745709
-0.0004734111,-1.2741566e-05,-0.00048241427
-9.2851165e-05,-1.1368275e-05,-0.00011512948
0.00043831542,-2.0981313e-05,0.00040535547
0.0003197527,-1.3809681e-05,0.000293355
-0.00011177254,-1.1978626e-05,-0.000121080404
-0.00046105147,-1.030016e-05,-0.000458457
-0.00016746808,-1.4114858e-05,-0.00017555524
0.0004087124,-1.47252085e-05,0.00039391138
0.00035912087,-8.621216e-06,0.00035393288
-6.0959817e-05,-1.8387318e-05,-5.5466655e-05
-0.0004412146,-1.5640737e-05,-0.00042534544
-0.00023674394,-1.7319204e-05,-0.00022148468
0.00037148097,-1.5030385e-05,0.0003762112
0.00040154078,-1.5640737e-05,0.00041496946
-2.0599366e-06,-1.030016e-05,2.3880482e-05
-0.00041832592,-1.1978626e-05,-0.0003774319
-0.00029610112,-1.8082143e-05,-0.00025795365
0.00031883718,-2.1591664e-05,0.0003508811
0.0004311438,-1.4267445e-05,0.00047753096
5.8060174e-05,-1.1978626e-05,0.000118791584
-0.00037697412,-1.2131215e-05,-0.00029976323
-0.00034309912,-1.8692494e-05,-0.0002643628
0.0002660413,-2.3117544e-05,0.00034248878
0.00046639206,-1.2741566e-05,0.0005521479
0.000118944175,-1.3046742e-05,0.00022850418
-0.00032402563,-1.1826039e-05,-0.00019356061
-0.00037880518,-1.47252085e-05,-0.00023659135
0.00021507646,-1.7929555e-05,0.00035301736
0.0004921799,-1.2741566e-05,0.0006516366
0.00018181134,-9.384155e-06,0.00036964944
-0.00026100542,-9.07898e-06,-4.875231e-05
-0.0004035249,-7.858277e-06,-0.00016731549
0.00014900447,-2.0828726e-05,0.000386282
0.0005135422,-1.4877797e-05,0.0007689786
0.00024452593,-8.010865e-06,0.0005297175
-0.0002059207,-1.4420033e-05,0.00010780526
-0.0004087129,-6.4849855e-06,-7.25565e-05
8.4458356e-05,-9.842396e-06,0.0004273291
0.00052162935,-1.1826039e-05,0.0008744183
0.0002994585,-7.247925e-06,0.0006731515
-0.00014396859,-1.1520863e-05,0.00024925615
-0.00041313792,-9.536743e-06,-5.340576e-07
3.7384034e-06,-1.7014028e-05,0.00040962794
0.00050148775,-8.31604e-06,0.00090463116
0.00033775857,-4.3487553e-06,0.00074883655
-0.00010414267,-1.7166616e-05,0.00031670096
-0.00043282224,-1.5488149e-05,-3.7384034e-06
-8.918906e-05,-1.9150259e-05,0.00032341483
0.00045296433,-1.7929555e-05,0.00084222225
0.0003521018,-1.07579235e-05,0.0007354088
-8.3848005e-05,-1.319933e-05,0.00028572514
-0.00045769408,-1.4267445e-05,-0.00010612631
-0.00020164777,-1.5945912e-05,0.000111467365
0.0003846035,-2.0981313e-05,0.0006501108
0.0003597312,-1.5488149e-05,0.00059777213
-5.9128764e-05,-1.4420033e-05,0.0001535821
-0.0004621196,-1.1520863e-05,-0.00026863528
-0.00028618288,-1.7776967e-05,-0.00013206674
0.0003199053,-1.9913197e-05,0.0004283972
0.00037087014,-1.030016e-05,0.00045738937
-1.9608022e-05,-1.0452748e-05,5.4550652e-05
-0.00044579222,-1.1978626e-05,-0.00038796046
-0.0003598838,-1.5182973e-05,-0.00032723
0.00025352862,-1.4420033e-05,0.0002555127
0.0003936062,-1.1673451e-05,0.00038323022
2.9221059e-05,-6.6375737e-06,2.2812368e-05
-0.00040825512,-1.0910511e-05,-0.0004108491
-0.0004111543,-2.3270131e-05,-0.0004320593
0.0001898985,-2.189684e-05,0.00014961482
0.00041802123,-1.8845083e-05,0.00038170436
8.415318e-05,-7.858277e-06,5.3940297e-05
-0.00037010768,-5.874634e-06,-0.0003949795
-0.00045998336,-1.3046742e-05,-0.0004891281
0.00011787606,-1.5488149e-05,6.99625e-05
0.00042412474,-1.7319204e-05,0.0003757534
0.0001262684,-1.5182973e-05,8.247471e-05
-0.000321126,-1.5793325e-05,-0.0003511863
-0.00048470308,-1.5030385e-05,-0.00051049044
4.6158315e-05,-1.762438e-05,1.2969971e-06
0.0004373999,-1.4572621e-05,0.00039040187
0.00018547344,-8.010865e-06,0.00014518977
-0.00026771976,-1.1673451e-05,-0.00029472783
-0.00049523165,-1.3351918e-05,-0.00051644136
-3.0136587e-05,-1.7776967e-05,-6.6147804e-05
0.00042824462,-2.0981313e-05,0.00038551906
0.00023277666,-1.5182973e-05,0.00020119
-0.00021278716,-1.3657093e-05,-0.00024071122
-0.0005016403,-1.0147572e-05,-0.0005220876
-0.00010658408,-1.5182973e-05,-0.00013725473
0.00041237546,-1.4420033e-05,0.00036675026
0.00028084233,-9.384155e-06,0.00024406816
-0.00015800715,-1.6861439e-05,-0.00018684674
-0.0004961472,-1.9608022e-05,-0.0005230031
-0.00017143537,-2.2812368e-05,-0.00021309234
0.0003910122,-1.8845083e-05,0.00034264138
0.00031883718,-1.6708851e-05,0.00027580693
-0.00010460043,-1.3657093e-05,-0.00014640999
-0.00048424533,-9.231568e-06,-0.0005196462
-0.00025825883,-1.823473e-05,-0.0003058672
0.00034264138,-2.0676138e-05,0.00027870608
0.00034782937,-1.7471792e-05,0.00028572514
-6.263828e-05,-1.2894154e-05,-0.00011818123
-0.00047051194,-1.47252085e-05,-0.00052315573
-0.0003281455,-1.9455434e-05,-0.00039284327
0.00028526736,-1.7776967e-05,0.0002039366
0.0003736172,-1.319933e-05,0.00029167606
-9.536743e-06,-1.7166616e-05,-8.369541e-05
-0.0004422827,-1.1368275e-05,-0.0005124741
-0.00038673976,-1.8692494e-05,-0.00046700242
0.00022926713,-1.7929555e-05,0.0001323719
0.0003997097,-1.1826039e-05,0.00030525686
4.5547964e-05,-1.5945912e-05,-4.142809e-05
-0.00040047313,-9.842396e-06,-0.00048363497
-0.00044060423,-1.5945912e-05,-0.000528954
0.00015510798,-2.037096e-05,4.951525e-05
0.00041847897,-1.7014028e-05,0.00031273367
9.361363e-05,-1.1673451e-05,-6.332398e-06
-0.00036034157,-1.4267445e-05,-0.0004551001
-0.00047692063,-1.4420033e-05,-0.00056878
8.125401e-05,-2.0676138e-05,-3.12047e-05
0.00041557982,-1.4420033e-05,0.0002968645
0.00013038826,-1.5793325e-05,1.8844605e-05
-0.00031700614,-1.3809681e-05,-0.0004198518
-0.0005117112,-2.0065785e-05,-0.0006150146
5.340576e-07,-2.6016713e-05,-0.0001248951
0.0004100857,-1.8692494e-05,0.00027946904
0.0001810484,-1.6556263e-05,6.019688e-05
-0.000264668,-1.6861439e-05,-0.00037941552
-0.0005262075,-2.0981313e-05,-0.0006379037
-7.896519e-05,-1.8539906e-05,-0.0001975279
0.00040138818,-1.8539906e-05,0.00027290775
0.00022835161,-1.4877797e-05,0.000105821615
-0.0002161441,-1.1673451e-05,-0.00032921362
-0.0005184255,-1.2131215e-05,-0.0006296635
-0.00015159846,-1.7471792e-05,-0.00027672245
0.0003849087,-2.1133901e-05,0.00024895096
0.00027611208,-1.5793325e-05,0.00014900447
-0.00015587092,-1.7776967e-05,-0.00027306034
-0.00051018526,-2.2507193e-05,-0.0006246281
-0.00022835161,-1.8082143e-05,-0.00035408547
0.000355001,-2.0828726e-05,0.00021889116
0.00031700614,-1.396227e-05,0.00018898297
-0.0001038375,-1.24363905e-05,-0.00022117949
-0.000495842,-1.0452748e-05,-0.0006073852
-0.00029549075,-1.3504506e-05,-0.0004187837
0.0003098345,-2.037096e-05,0.00017143489
0.00034676126,-1.8082143e-05,0.00021354962
-5.2720072e-05,-2.1286489e-05,-0.00017708112
-0.0004659343,-1.3657093e-05,-0.00058144523
-0.00036079934,-1.6861439e-05,-0.00048012545
0.00025490238,-2.0676138e-05,0.000115434654
0.00037636378,-9.07898e-06,0.00023796465
-4.3487553e-06,-1.07579235e-05,-0.00012916756
-0.0004335852,-1.3351918e-05,-0.00054879097
-0.00041405347,-1.5945912e-05,-0.000534905
0.00019447613,-1.2894154e-05,5.546618e-05
0.00040276148,-1.1520863e-05,0.00026680424
5.592394e-05,-1.4877797e-05,-6.828404e-05
-0.0003875027,-1.5182973e-05,-0.00050041964
-0.0004511328,-1.030016e-05,-0.0005666437
0.00013191414,-1.8692494e-05,-7.629395e-08
0.00042366696,-2.0065785e-05,0.0002886243
0.00011497689,-8.926392e-06,-4.653931e-06
-0.00033241799,-1.07579235e-05,-0.00044960692
-0.00047402145,-1.60985e-05,-0.0005959411
6.75211e-05,-1.7319204e-05,-6.0349466e-05
0.0004335852,-1.0910511e-05,0.00033089163
0.00017341854,-1.6708851e-05,0.00010780526
-0.00026558354,-1.319933e-05,-0.00031700614
-0.00048287204,-1.319933e-05,-0.00052040914
3.5858156e-06,-2.0828726e-05,-5.1804545e-05
0.0004471655,-1.7776967e-05,0.00038902857
0.00023186112,-1.9913197e-05,0.00018745709
-0.0002198062,-1.7319204e-05,-0.00024300005
-0.0005007248,-1.5640737e-05,-0.00052498677
-8.76627e-05,-2.265978e-05,-0.00014457894
0.0004100857,-1.9455434e-05,0.00033882668
0.00025490238,-1.6251088e-05,0.00019233991
-0.00018150617,-1.4267445e-05,-0.00022194244
-0.0005083542,-1.4572621e-05,-0.0005397883
-0.00016807843,-1.9608022e-05,-0.00021248199
0.00038506128,-1.47252085e-05,0.00032448294
0.0002947283,-1.2283803e-05,0.00022346879
-0.00013267709,-1.6251088e-05,-0.0002123294
-0.00050423434,-1.2588978e-05,-0.0005904479
-0.00024879837,-1.9302846e-05,-0.00035439065
0.00034538796,-2.3270131e-05,0.00023643876
0.00033501198,-1.47252085e-05,0.00023201371
-7.5913435e-05,-1.8692494e-05,-0.000176013
-0.00048134616,-1.24363905e-05,-0.0005782409
-0.00031441214,-1.976061e-05,-0.00042626096
0.00029427052,-2.342272e-05,0.00014457942
0.00035133888,-1.762438e-05,0.000169909
-4.0970328e-05,-1.24363905e-05,-0.00021568633
-0.00046150925,-1.0147572e-05,-0.00060524896
-0.0003861294,-2.9221059e-05,-0.00053124287
0.00022667313,-3.4714223e-05,6.0654642e-05
0.0003795681,-2.9526234e-05,0.00022011186
1.5792848e-05,-1.9302846e-05,-0.00013603402
-0.0004247351,-2.2354603e-05,-0.00056404975
-0.000438468,-2.9221059e-05,-0.0005834289
0.00016807795,-3.486681e-05,1.2893677e-05
0.0004035244,-2.8915883e-05,0.00024437334
7.1488386e-05,-2.2507193e-05,-7.37772e-05
-0.00037285424,-2.7390004e-05,-0.0005121689
-0.00046456102,-3.1052114e-05,-0.0006011291
0.00010704232,-3.12047e-05,-4.5547964e-05
0.00042381955,-2.2354603e-05,0.0002684827
0.00013344003,-2.4338247e-05,-8.621216e-06
-0.00031532766,-2.8000357e-05,-0.00044792844
-0.00048683933,-2.4948598e-05,-0.0006153202
4.00548e-05,-3.2730582e-05,-0.00010353232
0.00045037034,-2.9373647e-05,0.0003057146
0.00023643876,-2.4643423e-05,0.000118791584
-0.0001975279,-1.9302846e-05,-0.00018501568
-0.000417563,-7.553101e-06,-0.0002097354
9.117222e-05,-1.60985e-05,0.0005083542
0.0006153202,-1.8845083e-05,0.0013288318
0.0004709697,-1.2131215e-05,0.0016420995
3.0289175e-05,-1.8692494e-05,0.0015992218
-0.00029137087,-2.0218373e-05,0.0016420995
2.2354603e-05,-1.3504506e-05,0.0016420995
0.00043282224,-9.842396e-06,0.0016420995
0.00013908626,-9.842396e-06,0.0011956211
-0.00042748166,-1.2894154e-05,-0.00025581743
-0.0008261996,-8.621216e-06,-0.0012160678
-0.0005196462,-1.8845083e-05,-0.0010053406
7.9270365e-05,-1.7319204e-05,-0.00026878787
9.8344804e-05,-1.1978626e-05,-0.00017006208
-0.00023414995,-1.4267445e-05,-0.00041649488
-0.00055565743,-1.1978626e-05,-0.00070153334
-0.00028374148,-1.4877797e-05,-0.00035423806
0.00034248878,-1.7471792e-05,0.0002997637
0.00037529567,-1.7319204e-05,0.00035194925
-2.8610708e-05,-1.7471792e-05,-5.210972e-05
-0.0004349585,-8.773804e-06,-0.00046395065
-0.00030189945,-1.3046742e-05,-0.00034508278
0.0003173113,-1.6556263e-05,0.00025658085
0.00042031004,-1.319933e-05,0.00036461404
4.4632437e-05,-1.4572621e-05,-6.942749e-06
-0.00038155177,-1.47252085e-05,-0.0004207678
-0.000339437,-1.823473e-05,-0.0003847561
0.00027016117,-2.0065785e-05,0.00021461774
0.00045357467,-1.3504506e-05,0.0003986416
0.00010032845,-1.4420033e-05,5.836535e-05
-0.000339437,-2.0523548e-05,-0.0003734646
-0.00038277247,-1.7014028e-05,-0.00041283277
0.00021049786,-2.1133901e-05,0.00016197444
0.00047417404,-1.60985e-05,0.00043129636
0.00015526057,-1.4114858e-05,0.00012077523
-0.00029533816,-1.030016e-05,-0.00031639577
-0.0004209204,-1.6403676e-05,-0.0004409094
0.00013511849,-2.1133901e-05,0.00010322762
0.00048088792,-1.5945912e-05,0.00044655515
0.0002062254,-1.2741566e-05,0.00018715192
-0.00024330521,-1.0452748e-05,-0.00025032426
-0.00044060423,-1.5335561e-05,-0.0004447241
6.019688e-05,-1.976061e-05,4.6005727e-05
0.00048561813,-1.8082143e-05,0.00047081712
0.000256886,-1.2894154e-05,0.000254292
-0.0001898985,-1.60985e-05,-0.00018089582
-0.0004522009,-1.8845083e-05,-0.00043419554
-1.4572621e-05,-1.2131215e-05,-9.231568e-06
0.00047035934,-9.842396e-06,0.00047142745
0.0002994585,-1.4267445e-05,0.00031670096
-0.00014167977,-1.1368275e-05,-0.00010933114
-0.0004534216,-1.1215688e-05,-0.00041054393
-8.979941e-05,-1.7929555e-05,-5.36356e-05
0.00045189622,-1.6556263e-05,0.0004811931
0.00034889748,-1.0910511e-05,0.00039162257
-7.896519e-05,-1.24363905e-05,-1.7166616e-05
-0.00043663694,-1.1826039e-05,-0.00035927346
-0.00015831232,-1.5488149e-05,-8.26273e-05
0.0004273291,-2.1286489e-05,0.0005022507
0.0003998623,-1.7776967e-05,0.0004961472
-1.07579235e-05,-1.7319204e-05,0.00010261727
-0.0004000149,-1.5182973e-05,-0.00026527836
-0.00020302106,-1.0910511e-05,-6.3553816e-05
0.000408865,-2.0065785e-05,0.00055153755
0.00046227218,-1.3657093e-05,0.00063134194
6.782627e-05,-1.0452748e-05,0.0002622266
-0.000344625,-1.5030385e-05,-0.00012306405
-0.00024147416,-1.4420033e-05,-8.010865e-06
0.00037804223,-2.5406362e-05,0.00061684614
0.0005121689,-1.7471792e-05,0.00077645545
0.00013878108,-1.1063099e-05,0.00043266965
-0.00029503298,-1.3351918e-05,2.7084829e-05
-0.00027794315,-1.396227e-05,6.080723e-05
0.00032890798,-1.8387318e-05,0.00066979456
0.0005394831,-1.7776967e-05,0.0008944078
0.00020088482,-9.07898e-06,0.000579309
-0.00024834063,-1.2894154e-05,0.00015159846
-0.00032631448,-1.7319204e-05,8.125401e-05
0.00024711993,-1.8082143e-05,0.0006455331
0.00054253486,-1.24363905e-05,0.0009446097
0.000235981,-5.7220464e-06,0.000652247
-0.00022011138,-1.1673451e-05,0.00020729352
-0.0003772793,-1.3809681e-05,5.1193718e-05
0.00015449763,-1.9150259e-05,0.0005623713
0.0005266648,-1.5945912e-05,0.00092126377
0.00025978519,-9.536743e-06,0.00064766937
-0.00019554426,-1.1215688e-05,0.00017891217
-0.00042153074,-1.762438e-05,-7.164097e-05
5.6839468e-05,-1.9455434e-05,0.00036140968
0.00049797824,-1.7166616e-05,0.0007627225
0.00028801395,-9.842396e-06,0.0005294123
-0.00016670514,-8.773804e-06,4.9973012e-05
-0.00044808103,-1.2741566e-05,-0.00026176835
-4.1733267e-05,-2.1133901e-05,9.7428325e-05
0.00046257736,-1.5335561e-05,0.00056572823
0.00031502248,-1.3657093e-05,0.0003998623
-0.00012779426,-1.319933e-05,-6.0654642e-05
-0.0004573889,-6.6375737e-06,-0.0004074922
-0.00013176155,-1.4267445e-05,-0.000114366536
0.00042748166,-1.9150259e-05,0.00041908934
0.0003444724,-1.2894154e-05,0.0003298235
-8.537388e-05,-7.400513e-06,-0.00010200644
-0.00045769408,-1.1063099e-05,-0.00047646285
-0.00021370269,-1.5945912e-05,-0.00025078203
0.00037651637,-1.8082143e-05,0.00032265187
0.0003722439,-1.7014028e-05,0.00032158376
-3.9749626e-05,-1.3657093e-05,-8.4458356e-05
-0.0004412146,-1.319933e-05,-0.00047676804
-0.00028557255,-1.9913197e-05,-0.0003331809
0.0003261614,-1.7776967e-05,0.00026298955
0.0004024563,-1.8539906e-05,0.00034294656
1.5487672e-05,-1.07579235e-05,-3.562975e-05
-0.00041145948,-1.0147572e-05,-0.0004512854
-0.00034172586,-1.5488149e-05,-0.00038765528
0.00027534916,-1.7471792e-05,0.00021339704
0.0004297705,-1.3809681e-05,0.00037041237
7.1335795e-05,-1.3504506e-05,2.3270131e-05
-0.00036934472,-1.1520863e-05,-0.0004074922
-0.0003896389,-1.0147572e-05,-0.00042916014
0.00020988751,-1.8845083e-05,0.00015419246
0.00045311693,-1.5945912e-05,0.0003987942
0.0001223011,-9.536743e-06,7.911778e-05
-0.0003235679,-1.0910511e-05,-0.0003585105
-0.0004273291,-1.6251088e-05,-0.00046028855
0.00014274837,-1.8387318e-05,9.117222e-05
0.00046364547,-1.5945912e-05,0.00041207028
0.00017311335,-8.010865e-06,0.00013145639
-0.0002785535,-8.926392e-06,-0.0003110552
-0.00045448972,-1.976061e-05,-0.00048638156
6.706334e-05,-1.9913197e-05,1.701355e-05
0.00046959642,-1.2741566e-05,0.0004145117
0.00022575761,-9.689332e-06,0.00017631818
-0.00022621537,-1.2741566e-05,-0.00026619388
-0.00046501876,-1.6556263e-05,-0.0005048447
-1.030016e-05,-1.899767e-05,-6.7978865e-05
0.00046303513,-1.9302846e-05,0.0003936062
0.00027275516,-1.0452748e-05,0.00021049786
-0.00017143537,-1.0910511e-05,-0.00022850418
-0.00047249557,-1.07579235e-05,-0.0005292592
-8.9494235e-05,-1.9302846e-05,-0.00016273737
0.0004372473,-1.6556263e-05,0.00035194925
0.0003083086,-9.384155e-06,0.00022957231
-0.00013069344,-1.3351918e-05,-0.00020561554
-0.00047402145,-1.3657093e-05,-0.0005457392
-0.000170825,-1.976061e-05,-0.00025795365
0.000395895,-1.7929555e-05,0.00029671192
0.00033928442,-1.3504506e-05,0.00024589922
-8.308506e-05,-1.5640737e-05,-0.00017494489
-0.00046700242,-1.7776967e-05,-0.000553216
-0.00025230792,-1.7471792e-05,-0.00034782937
0.0003511863,-2.1286489e-05,0.0002373543
0.00037041237,-2.0065785e-05,0.0002610059
-3.3798697e-05,-1.8082143e-05,-0.0001349659
-0.0004471655,-1.2894154e-05,-0.0005426874
-0.00032127858,-1.6708851e-05,-0.00042519285
0.00029610159,-2.4185658e-05,0.00017631818
0.0004009304,-2.2354603e-05,0.00028297855
2.0065785e-05,-1.2741566e-05,-9.11727e-05
-0.0004122224,-9.07898e-06,-0.0005149155
-0.0003748379,-1.5640737e-05,-0.00048302463
0.0002397957,-2.0828726e-05,0.000114366536
0.00042427733,-1.6251088e-05,0.0002997637
7.347202e-05,-1.6251088e-05,-4.280138e-05
-0.0003632412,-1.7471792e-05,-0.00047127486
-0.00041298533,-2.037096e-05,-0.0005262075
0.00017647077,-2.7847767e-05,4.646349e-05
0.0004483862,-1.7166616e-05,0.00031776907
0.00012947274,-1.030016e-05,7.0953374e-06
-0.0003209734,-9.842396e-06,-0.00043389035
-0.00044640258,-1.9455434e-05,-0.00055764103
0.000103532795,-2.3727895e-05,-2.6016713e-05
0.00045311693,-1.7166616e-05,0.00031944754
0.0001749444,-8.926392e-06,5.1956657e-05
-0.0002773328,-7.705688e-06,-0.0003908596
-0.00047661545,-7.553101e-06,-0.00058770133
2.1591664e-05,-1.7929555e-05,-0.000108720786
0.00044304563,-1.7776967e-05,0.00031013967
0.00021492387,-1.07579235e-05,9.101963e-05
-0.00023048783,-1.396227e-05,-0.0003482871
-0.0004946213,-1.0147572e-05,-0.00060769037
-6.1112405e-05,-1.3504506e-05,-0.00018867779
0.00042824462,-1.7014028e-05,0.00029289676
0.00025795415,-1.396227e-05,0.00013099861
-0.00018532087,-1.3809681e-05,-0.0003035784
-0.0004967575,-1.6403676e-05,-0.0006108947
-0.0001374073,-2.7084829e-05,-0.000264668
0.0004048977,-2.2202015e-05,0.00026878787
0.0003057146,-1.0147572e-05,0.00017738629
-0.00012550545,-1.5488149e-05,-0.00024330521
-0.00048470308,-1.2741566e-05,-0.00059517816
-0.00020912505,-2.1744252e-05,-0.00033012917
0.00037697412,-2.342272e-05,0.00024422075
0.00034386208,-1.5182973e-05,0.00021889116
-7.1335795e-05,-8.926392e-06,-0.00018959332
-0.00046700242,-1.2131215e-05,-0.00057763053
-0.00028114748,-1.60985e-05,-0.00040062572
0.0003311968,-1.6861439e-05,0.0001987486
0.00037544823,-1.1215688e-05,0.00025047685
-1.762438e-05,-7.858277e-06,-0.00013344003
-0.00043694212,-1.0147572e-05,-0.0005429926
-0.00033897927,-1.5335561e-05,-0.00044670774
0.00028023197,-2.2049428e-05,0.00015434505
0.00041100217,-1.1368275e-05,0.00028343633
4.4327262e-05,-9.842396e-06,-6.828404e-05
-0.00039284327,-9.384155e-06,-0.00047539474
-0.00037895777,-1.4877797e-05,-0.00043053343
0.0002323189,-2.265978e-05,0.0001749444
0.00044991256,-1.3351918e-05,0.00040016748
0.00011177254,-8.010865e-06,7.331944e-05
-0.0003310447,-9.07898e-06,-0.00035759498
-0.00040764478,-1.8845083e-05,-0.00043282224
0.00016472102,-2.3880482e-05,0.00013466073
0.00045799973,-1.7014028e-05,0.00042687132
0.00014503718,-1.6861439e-05,0.00010261727
-0.0003121233,-1.6861439e-05,-0.00035286476
-0.00047005416,-1.3504506e-05,-0.00051186373
6.584263e-05,-2.1439077e-05,1.8997192e-05
0.0004422827,-1.5182973e-05,0.00040016748
0.00018410016,-9.689332e-06,0.00015175105
-0.0002671094,-9.384155e-06,-0.00029915286
-0.0004894333,-1.1063099e-05,-0.00052941183
-1.4114858e-05,-2.4338247e-05,-8.2169536e-05
0.0004320593,-1.2894154e-05,0.00034401467
0.00022102738,-1.8387318e-05,0.00012672615
-0.00022423125,-1.4572621e-05,-0.0003046465
-0.00050179294,-1.4420033e-05,-0.0005674067
-9.2851165e-05,-2.0676138e-05,-0.00018242169
0.00041634275,-1.0147572e-05,0.00030937674
0.00026939824,-1.3504506e-05,0.00016929866
-0.00016762067,-1.2894154e-05,-0.00027168705
-0.000505455,-1.899767e-05,-0.00063607265
-0.00017357159,-2.0218373e-05,-0.00033516457
0.00038689232,-1.9455434e-05,0.0002361336
0.000313344,-1.7166616e-05,0.00017906477
-0.00011726571,-1.762438e-05,-0.00025047685
-0.0004891281,-1.319933e-05,-0.00061409903
-0.00024284745,-1.9150259e-05,-0.0003757534
0.0003485923,-1.823473e-05,0.00020149518
0.0003435569,-1.4114858e-05,0.00020607281
-6.584263e-05,-1.6708851e-05,-0.00019401837
-0.00046684983,-1.2283803e-05,-0.0005848022
-0.00031120778,-1.9150259e-05,-0.0004386206
0.00030388357,-2.189684e-05,0.00016670466
0.0003786526,-2.2202015e-05,0.00024437334
-1.0147572e-05,-1.2894154e-05,-0.0001313038
-0.00043434813,-1.9302846e-05,-0.0005471125
-0.00036675073,-1.976061e-05,-0.00047997286
0.00024895096,-1.8692494e-05,0.000120012286
0.0004073391,-1.8692494e-05,0.0002860303
4.4937613e-05,-1.1368275e-05,-6.919957e-05
-0.0003885708,-1.5488149e-05,-0.0004891281
-0.00037926293,-2.0828726e-05,-0.00048271945
0.00024742508,-2.189684e-05,0.00018410016
0.0004982834,-1.8692494e-05,0.0006032653
0.0002100401,-2.2507193e-05,0.00053170114
-0.00017936993,-2.7237416e-05,0.00039894678
-0.00022041655,-1.7929555e-05,0.0007454796
0.00035896827,-2.0523548e-05,0.0016420995
0.00066674285,-1.823473e-05,0.0016420995
0.00031166556,-5.874634e-06,0.0016420995
-0.00024864578,-8.31604e-06,0.0015584803
-0.0005646601,-1.0147572e-05,0.0007343407
-0.0002121768,-1.8845083e-05,0.0003835354
8.0948834e-05,-1.9913197e-05,-9.758139e-05
-0.00018623639,-1.319933e-05,-0.0005895324
-0.0006194401,-1.6708851e-05,-0.0009159227
-0.00078866247,-1.6708851e-05,-0.0010192264
-0.00021889068,-1.762438e-05,-0.00040169383
0.00032433035,-1.9150259e-05,0.00018410016
0.00019386578,-1.5488149e-05,0.00012672615
-0.00021919585,-1.7776967e-05,-0.00022163725
-0.0004923325,-2.1591664e-05,-0.00047982027
-0.000100175384,-2.5101186e-05,-0.000108568194
0.00042702392,-1.9302846e-05,0.0003920803
0.0002997637,-1.8539906e-05,0.00026512577
-0.00013191414,-1.2588978e-05,-0.00016227961
-0.00047249557,-1.60985e-05,-0.0004978256
-0.00016273737,-2.6779653e-05,-0.00020164777
0.00041603757,-2.2354603e-05,0.00036583474
0.00035927346,-1.5030385e-05,0.00031914236
-6.019688e-05,-1.9150259e-05,-9.2851165e-05
-0.0004435034,-1.899767e-05,-0.00046776535
-0.0002198062,-1.9608022e-05,-0.00025246048
0.00038506128,-2.2049428e-05,0.0003409629
0.00040337184,-1.319933e-05,0.0003673606
-4.653931e-06,-1.7471792e-05,-2.9984e-05
-0.00041161204,-6.6375737e-06,-0.00042870236
-0.00028191044,-1.7471792e-05,-0.0003031206
0.00033424902,-1.5640737e-05,0.00029991628
0.0004346533,-1.07579235e-05,0.00040581325
4.875231e-05,-1.60985e-05,3.4561635e-05
-0.00038048366,-1.1673451e-05,-0.00038384058
-0.00034172586,-2.0676138e-05,-0.0003482871
0.00026878787,-2.1133901e-05,0.00024895096
0.00045128586,-1.6556263e-05,0.0004360266
9.8344804e-05,-1.396227e-05,9.620762e-05
-0.00034508278,-1.1520863e-05,-0.00033394387
-0.0003908596,-1.2588978e-05,-0.0003795681
0.00020454694,-1.8539906e-05,0.00020454694
0.000469749,-1.0452748e-05,0.00047417404
0.00014961482,-1.1368275e-05,0.00016700984
-0.00030037356,-1.3046742e-05,-0.0002710767
-0.0004196992,-1.823473e-05,-0.00038658717
0.0001422906,-2.0828726e-05,0.00016350031
0.00048668624,-1.9302846e-05,0.0005109482
0.00021324445,-1.7929555e-05,0.00025413945
-0.00023414995,-1.8082143e-05,-0.00017921734
-0.00043068602,-2.1744252e-05,-0.00036690332
7.392979e-05,-2.403307e-05,0.00013008309
0.0004946213,-1.9302846e-05,0.00055428414
0.00026787235,-1.6403676e-05,0.00034523537
-0.00017525007,-2.0218373e-05,-7.8660014e-05
-0.00043419554,-1.9913197e-05,-0.00032372048
4.653931e-06,-2.4490835e-05,0.000113756185
0.0004911118,-1.9150259e-05,0.0006081486
0.00032143117,-1.4572621e-05,0.00046059373
-0.000116045005,-1.5793325e-05,4.753161e-05
-0.00042793943,-2.0828726e-05,-0.0002423897
-5.806065e-05,-2.9221059e-05,0.0001313038
0.0004874492,-1.899767e-05,0.00068490126
0.00038261988,-1.2741566e-05,0.00060982705
-4.6158315e-05,-1.7014028e-05,0.00021248151
-0.00040184642,-1.3809681e-05,-0.00011268807
-0.000118944175,-1.7166616e-05,0.00018074323
0.00046608687,-2.4338247e-05,0.00077538734
0.000435874,-1.6708851e-05,0.00077538734
2.2049428e-05,-1.2741566e-05,0.00038887598
-0.0003698025,-1.8845083e-05,2.2202015e-05
-0.00017372418,-1.7471792e-05,0.00022621537
0.00043572142,-2.1439077e-05,0.00083642296
0.0004811931,-1.7929555e-05,0.0008995958
8.6747175e-05,-1.7319204e-05,0.0005259018
-0.00033134987,-1.4572621e-05,0.00012687875
-0.00023292925,-1.8387318e-05,0.00022819902
0.00038139918,-2.2049428e-05,0.0008295565
0.0004999619,-1.6251088e-05,0.0009543753
0.00011970711,-1.5335561e-05,0.00058297114
-0.00032204154,-1.6556263e-05,0.00014061213
-0.0003160906,-1.823473e-05,0.0001299305
0.0002823682,-2.1591664e-05,0.00069298845
0.00048149825,-1.8539906e-05,0.00086724665
0.00013160898,-1.319933e-05,0.0004961472
-0.00032188895,-9.689332e-06,1.8386841e-05
-0.0004007783,-1.1826039e-05,-9.712363e-05
0.0001738763,-1.9150259e-05,0.00042610837
0.00046334032,-1.5182973e-05,0.0006786447
0.00015266657,-1.9455434e-05,0.0003449302
-0.00029930545,-1.3504506e-05,-0.00013099861
-0.00045204832,-1.6251088e-05,-0.0003147173
8.506871e-05,-2.2812368e-05,0.00017769147
0.00045037034,-1.2131215e-05,0.00051430514
0.00018562604,-1.5945912e-05,0.00023643876
-0.00026283646,-1.5335561e-05,-0.00022453643
-0.00048622896,-1.1826039e-05,-0.00046013595
-3.4332277e-06,-1.823473e-05,-6.4849855e-06
0.0004361792,-1.5945912e-05,0.00041741086
0.00022392656,-1.5182973e-05,0.00020576765
-0.00021904327,-1.6708851e-05,-0.00023399736
-0.0004982834,-1.2741566e-05,-0.00051552587
-8.14066e-05,-1.5335561e-05,-0.00011589241
0.00042488766,-1.9608022e-05,0.00038185692
0.00027168705,-1.4877797e-05,0.00023537065
-0.00016441585,-1.5488149e-05,-0.00019356061
-0.0004934006,-1.9455434e-05,-0.0005194936
-0.00015831232,-1.8692494e-05,-0.00019630718
0.00039833641,-1.762438e-05,0.0003495078
0.00031258108,-1.1673451e-05,0.0002735181
-0.00011497689,-1.0910511e-05,-0.00014579964
-0.00048516085,-1.5488149e-05,-0.0005071335
-0.00023186112,-2.1286489e-05,-0.00026375247
0.00036430886,-2.037096e-05,0.000321126
0.0003484397,-1.7166616e-05,0.00031395437
-6.1112405e-05,-1.3351918e-05,-8.6594584e-05
-0.00046166184,-1.3351918e-05,-0.00047829392
-0.00029823734,-1.823473e-05,-0.000321126
0.00031548025,-1.9455434e-05,0.00027870608
0.00038445092,-1.60985e-05,0.0003533225
-6.332398e-06,-1.7319204e-05,-2.6627065e-05
-0.00043160154,-1.2741566e-05,-0.00044274045
-0.00035759498,-2.0828726e-05,-0.0003734646
0.0002605481,-2.6779653e-05,0.00022743607
0.00041435912,-1.4420033e-05,0.0003858242
4.6310903e-05,-1.4420033e-05,2.7542592e-05
-0.00039269068,-8.621216e-06,-0.00040520335
-0.00040550853,-1.7929555e-05,-0.00042290404
0.00019798566,-1.823473e-05,0.00016441585
0.00042992306,-1.1368275e-05,0.00039635279
9.620762e-05,-1.47252085e-05,6.889439e-05
-0.000349813,-1.396227e-05,-0.0003723965
-0.0004497595,-1.60985e-05,-0.0004735637
0.0001198597,-2.3575307e-05,7.728672e-05
0.0004387732,-1.4877797e-05,0.0003925381
0.00014122248,-1.2741566e-05,0.00010170174
-0.00030937674,-1.2741566e-05,-0.00034416726
-0.00047753096,-9.07898e-06,-0.0005135422
4.1733267e-05,-1.7471792e-05,-1.3046742e-05
0.00043663694,-1.5182973e-05,0.0003748379
0.00019188214,-9.994984e-06,0.00013603402
-0.00026161576,-1.2588978e-05,-0.00031151297
-0.00049797824,-1.2131215e-05,-0.00054863835
-3.5171986e-05,-1.9913197e-05,-0.00010215903
0.00042381955,-2.0065785e-05,0.00034813455
0.00023186112,-1.1520863e-05,0.00016334772
-0.0002133975,-1.3809681e-05,-0.00027580693
-0.0005083542,-1.1978626e-05,-0.00056816963
-0.00011772347,-1.762438e-05,-0.00019264508
0.00040306666,-1.8692494e-05,0.00031654836
0.00026924565,-1.5640737e-05,0.00019172956
-0.00016777325,-1.319933e-05,-0.0002397957
-0.000506218,-1.5030385e-05,-0.00057579903
-0.00019920636,-1.7471792e-05,-0.00028007937
0.00036919166,-1.3046742e-05,0.00027611208
0.00030800345,-1.5030385e-05,0.00022285843
-0.00011512948,-1.6403676e-05,-0.00019447613
-0.0004950791,-1.5030385e-05,-0.0005684748
-0.0002707715,-2.0828726e-05,-0.00035378028
0.00033073904,-1.899767e-05,0.00023308182
0.00034554055,-1.7471792e-05,0.00025520756
-5.882359e-05,-1.6708851e-05,-0.0001424427
-0.0004659343,-1.7319204e-05,-0.00054039864
-0.00033150247,-2.0065785e-05,-0.0004146638
0.00028282596,-2.5406362e-05,0.00018410016
0.00038033107,-2.189684e-05,0.00028572514
-3.7384034e-06,-1.5945912e-05,-9.025717e-05
-0.00043755246,-1.4877797e-05,-0.0005133896
-0.0003913174,-1.4572621e-05,-0.00047310593
0.00022240067,-1.762438e-05,0.00012321664
0.00039650538,-9.994984e-06,0.000298543
4.2343618e-05,-1.07579235e-05,-4.6616078e-05
-0.0004036775,-1.5640737e-05,-0.0004833298
-0.00044182493,-2.5711537e-05,-0.0005246816
0.00015053035,-2.2812368e-05,5.2567008e-05
0.00041283324,-1.5030385e-05,0.00031639577
8.934117e-05,-1.1826039e-05,1.9073486e-06
-0.00036018898,-1.4572621e-05,-0.0004396887
-0.00047798874,-1.9150259e-05,-0.00055748847
7.8202254e-05,-1.396227e-05,-1.6708851e-05
0.00041603757,-1.976061e-05,0.00031807425
0.0001349659,-1.3809681e-05,4.798937e-05
-0.000313344,-1.8387318e-05,-0.00039299586
-0.000510643,-2.0523548e-05,-0.00058678584
-4.3487553e-06,-1.7776967e-05,-9.605551e-05
0.00041207028,-1.7014028e-05,0.000315938
0.00018348981,-1.6251088e-05,9.605504e-05
-0.00026146317,-1.5182973e-05,-0.0003423362
-0.0005202565,-1.9302846e-05,-0.00059441524
-7.6981545e-05,-2.6474478e-05,-0.00016670514
0.00040825465,-1.976061e-05,0.00031288626
0.00023033525,-1.7319204e-05,0.00014717341
-0.000207294,-8.621216e-06,-0.00028267337
-0.0005196462,-1.2741566e-05,-0.0005910583
-0.00014976741,-1.4267445e-05,-0.00022804643
0.0003897915,-1.6556263e-05,0.0003034258
0.00028160526,-1.396227e-05,0.00019432355
-0.00014671565,-1.3504506e-05,-0.00022392608
-0.0004988938,-1.7166616e-05,-0.0005561152
-0.00021461822,-1.6556263e-05,-0.00025093462
0.00037438012,-2.5711537e-05,0.00034431985
0.00034157326,-1.0605336e-05,0.00032433035
-7.530308e-05,-7.247925e-06,-7.8202254e-05
-0.00046105147,-1.3809681e-05,-0.00045525268
-0.0002657361,-1.4877797e-05,-0.00026680424
0.0003408103,-2.189684e-05,0.00033195975
0.00037025978,-2.0828726e-05,0.0003786526
-3.1509877e-05,-1.6403676e-05,-2.9373647e-05
-0.00045708372,-1.7319204e-05,-0.0004587622
-0.000363699,-2.1133901e-05,-0.000375906
0.00024650956,-2.037096e-05,0.00022499467
0.00036400367,-2.2812368e-05,0.00035957864
-9.231568e-06,-1.60985e-05,-5.4168704e-06
-0.00044197752,-1.2741566e-05,-0.00043190672
-0.00043038084,-2.0523548e-05,-0.00043282224
0.0001712823,-2.5711537e-05,0.00014015437
0.00037514308,-1.9150259e-05,0.0003345542
2.632189e-05,-1.4572621e-05,-2.2507193e-05
-0.00041939403,-1.7776967e-05,-0.0004634929
-0.00048424533,-2.0065785e-05,-0.00051934103
0.00010200692,-2.6627065e-05,4.6616078e-05
0.0003911648,-1.3046742e-05,0.00032326224
8.323765e-05,-8.010865e-06,2.265978e-05
-0.00036415673,-1.5335561e-05,-0.00042229367
-0.00051049044,-1.9302846e-05,-0.00059502554
2.6779653e-05,-1.8082143e-05,-0.000100175384
0.00039696315,-1.8387318e-05,0.00027519657
0.00013664438,-1.7166616e-05,4.0359977e-05
-0.00031303885,-1.8845083e-05,-0.0004061189
-0.0005272756,-1.7776967e-05,-0.00062096596
-4.3564323e-05,-2.0218373e-05,-0.0001511407
0.00039803126,-2.1286489e-05,0.00028770877
0.00018669416,-1.6861439e-05,8.842564e-05
-0.00026146317,-1.0452748e-05,-0.00035286476
-0.00053566793,-9.994984e-06,-0.00062142377
-0.000116045005,-2.1133901e-05,-0.00021416045
0.00038796046,-1.6708851e-05,0.0002797742
0.00022911455,-2.037096e-05,0.00013099861
-0.0002071414,-1.6708851e-05,-0.00029228642
-0.00053566793,-1.5488149e-05,-0.0006125732
-0.00019508648,-2.0828726e-05,-0.00028389407
0.0003583579,-1.8387318e-05,0.00026115848
0.00027244998,-1.2588978e-05,0.00018577863
-0.00015510798,-1.4267445e-05,-0.00023323442
-0.00052147725,-1.319933e-05,-0.00059273676
-0.00025673295,-2.1133901e-05,-0.0003345542
0.0003624778,-3.2730582e-05,0.0002697034
0.00037193872,-2.3880482e-05,0.0003585105
-2.6627065e-05,-1.24363905e-05,0.0001325245
-0.00037773707,-1.6251088e-05,-4.653931e-06
-0.00014564705,-1.823473e-05,0.00046227218
0.00052162935,-2.5101186e-05,0.0015336081
0.0005934997,-1.899767e-05,0.0016420995
0.00017830182,-2.5177003e-06,0.0016420995
-0.00031746388,-7.553101e-06,0.0016420995
-0.00035423806,-1.2283803e-05,0.0014611273
9.97181e-05,-1.7776967e-05,0.0014673844
7.7591896e-05,-1.4877797e-05,0.00069131
-0.00038536647,-1.4420033e-05,-0.0004843979
-0.0008283358,-1.4572621e-05,-0.0010730908
-0.000815671,-1.7166616e-05,-0.0009652095
-0.0001374073,-1.8539906e-05,-0.00026985598
0.00020927716,-1.9608022e-05,0.00010963631
-4.814196e-05,-2.4338247e-05,-0.00012764169
-0.00043694212,-1.6708851e-05,-0.00045021728
-0.0004935532,-1.5945912e-05,-0.00045922044
9.8497396e-05,-1.899767e-05,0.00012275887
0.00041802123,-1.9302846e-05,0.0004311438
0.00012397957,-1.396227e-05,0.00013160898
-0.00032372048,-1.1368275e-05,-0.0003148699
-0.00048668674,-1.7014028e-05,-0.00048424533
3.9902214e-05,-2.1286489e-05,2.7847767e-05
0.00043633176,-1.9913197e-05,0.00041512205
0.00018577863,-1.4420033e-05,0.00017448665
-0.00026161576,-1.2894154e-05,-0.00026665165
-0.00049660495,-8.621216e-06,-0.0004982834
-2.9526234e-05,-1.8692494e-05,-4.7226433e-05
0.00043160154,-1.8082143e-05,0.00041100217
0.0002373543,-1.3657093e-05,0.00022529985
-0.00020943023,-1.60985e-05,-0.0002097354
-0.0004988938,-1.5335561e-05,-0.00049416354
-0.00010261679,-1.8387318e-05,-0.000108720786
0.00041084958,-1.9913197e-05,0.0003972683
0.00028191044,-1.7166616e-05,0.00027748538
-0.00015449763,-1.2131215e-05,-0.00014640999
-0.0004953842,-1.24363905e-05,-0.0004805832
-0.00017647077,-1.5640737e-05,-0.00017158795
0.0003925381,-1.9455434e-05,0.0003887234
0.00032799246,-1.1826039e-05,0.00033546973
-9.193564e-05,-8.31604e-06,-7.3014264e-05
-0.000472343,-1.3657093e-05,-0.00044457152
-0.00024208451,-2.0828726e-05,-0.0002210269
0.00035912087,-1.6708851e-05,0.00036934426
0.00037636378,-1.8845083e-05,0.0003974209
-2.8305532e-05,-1.3046742e-05,2.5177003e-06
-0.00043633176,-1.0910511e-05,-0.0003922329
-0.00029121828,-1.4420033e-05,-0.00025108721
0.0003209734,-1.6251088e-05,0.00035057595
0.00041527464,-2.1286489e-05,0.00045449022
3.4409048e-05,-1.8387318e-05,8.8883404e-05
-0.0003960476,-2.0065785e-05,-0.0003307395
-0.00034035256,-1.7471792e-05,-0.00027641727
0.0002785535,-2.0523548e-05,0.00033501198
0.00044975997,-1.2131215e-05,0.0005162888
9.65128e-05,-1.0452748e-05,0.00018287946
-0.0003437095,-8.926392e-06,-0.00024147416
-0.00038185692,-1.4114858e-05,-0.00027244998
0.00021248151,-2.0981313e-05,0.00031395437
0.00047371627,-1.976061e-05,0.0005861755
0.00015205622,-1.6403676e-05,0.00028847173
-0.00029381228,-1.4877797e-05,-0.0001349659
-0.0004099336,-2.1591664e-05,-0.00023674394
0.0001535821,-2.2812368e-05,0.00032707694
0.0005019455,-1.8845083e-05,0.00069024187
0.00022392656,-1.60985e-05,0.00044014645
-0.00022377349,-1.4877797e-05,2.265978e-05
-0.0004084077,-1.8845083e-05,-0.00013893319
0.000105211264,-7.400513e-06,0.00038261988
0.0005201035,-7.247925e-06,0.0008129244
0.0002935076,-1.6403676e-05,0.00061791425
-0.00015510798,-1.8692494e-05,0.00019554426
-0.0004047456,-2.265978e-05,-3.1509877e-05
3.9902214e-05,-2.0676138e-05,0.00041786864
0.00052544405,-2.3880482e-05,0.00091515976
0.00035164406,-1.762438e-05,0.0007647062
-9.193564e-05,-1.1368275e-05,0.00033745338
-0.00040398265,-1.4572621e-05,4.0512565e-05
-3.8223745e-05,-1.9913197e-05,0.00040276148
0.0004973679,-1.8387318e-05,0.00093636994
0.0003807888,-2.1133901e-05,0.0008362704
-5.8671e-05,-1.6861439e-05,0.00040810206
-0.0004235144,-1.8082143e-05,4.585314e-05
-0.00014213753,-2.189684e-05,0.00031044486
0.00042702392,-2.1744252e-05,0.0008503094
0.00038323022,-1.1673451e-05,0.0007984281
-4.3564323e-05,-5.7220464e-06,0.00035011818
-0.00043770505,-1.0910511e-05,-6.584263e-05
-0.00024895096,-2.265978e-05,8.308506e-05
0.0003534751,-2.2964956e-05,0.00063805585
0.00038551906,-1.4114858e-05,0.0006433964
-2.632189e-05,-1.2588978e-05,0.00020820905
-0.00044304563,-1.319933e-05,-0.00022697831
-0.0003395896,-2.2354603e-05,-0.00016639996
0.0002722974,-2.4338247e-05,0.0004048977
0.0003885708,-2.1286489e-05,0.0004982834
1.0299683e-05,-1.9455434e-05,0.000104143146
-0.00042244626,-1.3351918e-05,-0.00033775857
-0.00040321972,-1.5488149e-05,-0.00034401467
0.00020576765,-2.4643423e-05,0.00023247147
0.00040581325,-1.6708851e-05,0.00042656614
5.6381705e-05,-1.3351918e-05,7.515049e-05
-0.00039009668,-1.1673451e-05,-0.00037392238
-0.00045525268,-1.2588978e-05,-0.00044457152
0.0001285572,-1.7776967e-05,0.000118944175
0.00041390135,-1.3046742e-05,0.00039803126
9.8344804e-05,-1.3046742e-05,8.873082e-05
-0.0003559165,-1.24363905e-05,-0.00035667946
-0.0004975205,-1.9455434e-05,-0.0004978256
4.7226433e-05,-2.1439077e-05,2.5406362e-05
0.00041283324,-7.247925e-06,0.0003899441
0.00014686823,-9.07898e-06,0.00013679743
-0.00030388357,-8.31604e-06,-0.00030525686
-0.00052391866,-1.6403676e-05,-0.00051903585
-2.632189e-05,-2.1591664e-05,-3.913927e-05
0.00041039183,-1.3809681e-05,0.0003946743
0.00019295026,-1.8082143e-05,0.00018654157
-0.00024589922,-1.5945912e-05,-0.00024513627
-0.0005202565,-1.1826039e-05,-0.000510643
-9.391928e-05,-1.6251088e-05,-0.00010048056
0.00040535547,-1.8539906e-05,0.00039070702
0.00024650956,-1.823473e-05,0.00024071122
-0.00019157697,-1.319933e-05,-0.00018867779
-0.0005152207,-1.07579235e-05,-0.000506218
-0.00017586042,-1.9608022e-05,-0.00017936993
0.00037666896,-1.6861439e-05,0.00036461404
0.00028908206,-1.60985e-05,0.00028114748
-0.00014702082,-1.4572621e-05,-0.00014305307
-0.0005098801,-1.47252085e-05,-0.00049874117
-0.00025413895,-1.6251088e-05,-0.00025734332
0.0003321128,-1.9455434e-05,0.00031410696
0.0003173113,-1.6861439e-05,0.00029900076
-9.5139985e-05,-1.5793325e-05,-0.00010643149
-0.0004946213,-1.8539906e-05,-0.00049797824
-0.00032082084,-2.342272e-05,-0.00033653787
0.00028679325,-2.5253774e-05,0.00025368118
0.00034889748,-1.7166616e-05,0.00031685355
-3.913927e-05,-1.6556263e-05,-6.599522e-05
-0.00046166184,-1.9608022e-05,-0.00048088838
-0.00038155177,-2.0218373e-05,-0.0004084077
0.0002323189,-1.9913197e-05,0.00018532087
0.000383688,-1.8387318e-05,0.00033272317
1.4114381e-05,-1.2741566e-05,-2.5711537e-05
-0.0004247351,-1.5640737e-05,-0.00045830442
-0.00043297483,-1.8387318e-05,-0.00047569993
0.00016929866,-2.403307e-05,0.00010780526
0.00039940455,-1.823473e-05,0.00034004738
6.8436624e-05,-1.3046742e-05,1.701355e-05
-0.00038277247,-1.4572621e-05,-0.00043160154
-0.00047188523,-1.8082143e-05,-0.000524529
0.00010460091,-2.1133901e-05,3.5782337e-05
0.00041268065,-2.1744252e-05,0.00034157326
0.00011284066,-1.5182973e-05,4.814196e-05
-0.0003409629,-1.1215688e-05,-0.00039894678
-0.000506218,-1.07579235e-05,-0.0005649653
1.5335083e-05,-2.0981313e-05,-6.1112405e-05
0.000408865,-2.3575307e-05,0.00032402517
0.00016029597,-1.2894154e-05,8.232213e-05
-0.00029671146,-1.4267445e-05,-0.0003659878
-0.0005248342,-1.5793325e-05,-0.00058770133
-6.202793e-05,-2.3117544e-05,-0.00014045907
0.00039665797,-2.4185658e-05,0.00031502248
0.00020546246,-1.6251088e-05,0.00012809945
-0.00023933793,-1.5945912e-05,-0.00031288626
-0.0005272756,-2.2507193e-05,-0.00059502554
-0.00013435555,-2.1591664e-05,-0.0002185855
0.0003859768,-2.037096e-05,0.00029671192
0.00025062944,-1.8082143e-05,0.00016670466
-0.00018303204,-1.5335561e-05,-0.00025764847
-0.0005230031,-1.2741566e-05,-0.0005886169
-0.0002085147,-1.9150259e-05,-0.00029121828
0.0003621726,-1.9150259e-05,0.00026878787
0.00029076054,-1.9455434e-05,0.0002051573
-0.00013145639,-1.4420033e-05,-0.0002109561
-0.0005074387,-1.1368275e-05,-0.00057839346
-0.00028175785,-1.9608022e-05,-0.00036186792
0.00032402517,-1.762438e-05,0.00022957231
0.0003333335,-1.9608022e-05,0.00024177934
-7.0878035e-05,-1.5488149e-05,-0.00015327692
-0.00047692063,-1.6556263e-05,-0.0005498591
-0.0003385215,-1.7776967e-05,-0.00042244626
0.00027702763,-1.976061e-05,0.00017952253
0.00036964944,-1.7014028e-05,0.00028007937
-1.6861439e-05,-1.5182973e-05,-0.00010063315
-0.00044655515,-1.8845083e-05,-0.00052010396
-0.00039284327,-1.976061e-05,-0.00047051194
0.00021919633,-2.5253774e-05,0.00012382699
0.0003908596,-2.0828726e-05,0.00029671192
3.4103872e-05,-1.8692494e-05,-4.98209e-05
-0.0004073396,-1.6556263e-05,-0.00048470308
-0.00044289304,-2.0065785e-05,-0.0005205617
0.0001537347,-2.0676138e-05,5.9281352e-05
0.00040901758,-1.396227e-05,0.00031425955
8.979893e-05,-1.4420033e-05,6.027222e-06
-0.00036293603,-1.5793325e-05,-0.00044167234
-0.00047127486,-2.037096e-05,-0.0005492487
9.056187e-05,-1.7929555e-05,-1.7547608e-06
0.00042763425,-1.7929555e-05,0.00033806372
0.00015053035,-1.24363905e-05,5.9128764e-05
-0.0003012891,-1.1978626e-05,-0.000381094
-0.0004905014,-2.0676138e-05,-0.00055626774
2.2202015e-05,-2.342272e-05,-2.7390004e-05
0.00043648435,-2.403307e-05,0.00040215114
0.00020546246,-1.3657093e-05,0.00018257428
-0.00024147416,-1.1520863e-05,-0.00024528886
-0.0004915695,-1.7929555e-05,-0.0004897385
-4.4022087e-05,-1.5182973e-05,-5.8976177e-05
0.0004297705,-1.7319204e-05,0.00040840724
0.00025352862,-1.8845083e-05,0.00025902226
-0.00019691755,-1.1215688e-05,-0.00019539167
-0.0005117112,-1.5793325e-05,-0.0005185781
-0.00014992,-2.0981313e-05,-0.00017296124
0.00039009668,-1.9913197e-05,0.0003661399
0.0002771802,-1.762438e-05,0.0002710767
-0.00014671565,-1.5488149e-05,-0.00014961482
-0.00049553683,-1.7014028e-05,-0.0004934006
-0.00021370269,-2.5406362e-05,-0.00022301055
0.0003623252,-2.3270131e-05,0.00032692435
0.0003160906,-1.2588978e-05,0.00027046635
-0.000104753024,-9.07898e-06,-0.00015678645
-0.0004982834,-1.319933e-05,-0.0005519953
-0.00029838993,-1.7319204e-05,-0.0003484397
0.00031075,-1.3504506e-05,0.00024422075
0.00034401467,-1.4267445e-05,0.00027000858
-5.6229594e-05,-1.319933e-05,-0.00012352181
-0.00047463182,-1.1826039e-05,-0.00054100895
-0.00037178613,-1.8692494e-05,-0.00047081712
0.00024177934,-2.3880482e-05,9.819222e-05
0.0003611045,-1.7319204e-05,0.00023064042
-7.0953374e-06,-1.2741566e-05,-0.00011223031
-0.000443656,-1.1368275e-05,-0.00054497627
-0.0004134431,-2.2049428e-05,-0.00052285055
0.00019279767,-2.7084829e-05,6.675816e-05
0.0003962002,-2.0218373e-05,0.00027565434
5.4855827e-05,-1.7319204e-05,-5.1804545e-05
-0.00039528467,-1.2283803e-05,-0.0004921799
-0.0004589148,-1.9608022e-05,-0.0005622187
0.00012565804,-1.899767e-05,6.17981e-06
0.000413291,-2.2812368e-05,0.0002971697
0.00010536385,-1.9150259e-05,9.918214e-07
-0.0003482871,-1.4267445e-05,-0.0004460974
-0.0004895859,-1.8387318e-05,-0.00058251334
5.3482534e-05,-2.0828726e-05,-5.6077006e-05
0.00041344357,-2.3880482e-05,0.00030373098
0.00015007258,-1.8539906e-05,5.01256e-05
-0.00030907156,-1.396227e-05,-0.00039940455
-0.00051552587,-1.1063099e-05,-0.0006023498
-1.6403676e-05,-2.555895e-05,-0.000118333825
0.00044457152,-2.7084829e-05,0.0003411155
0.00025230792,-1.9608022e-05,0.00022285843
-0.00018532087,-1.4420033e-05,-3.9444447e-05
-0.00041054393,-1.60985e-05,-7.499791e-05
6.9046975e-05,-2.4643423e-05,0.0006218815
0.000630579,-2.4643423e-05,0.0015813685
0.0004995041,-1.1368275e-05,0.0016420995
4.3106556e-05,-8.31604e-06,0.0016420995
-0.00034401467,-2.037096e-05,0.0016420995
-0.000108110435,-1.976061e-05,0.0016420995
0.0002835889,-1.7471792e-05,0.0016420995
2.7542592e-05,-1.3504506e-05,0.0006726938
-0.0004999619,-7.0953374e-06,-0.0005883117
-0.00087563903,-1.6556263e-05,-0.0011771573
-0.0005933471,-2.037096e-05,-0.0008019381
4.9820424e-05,-1.9608022e-05,-9.864951e-05
0.00012672615,-2.0981313e-05,2.189684e-05
-0.000207294,-1.5488149e-05,-0.0003145647
-0.00055001164,-1.1826039e-05,-0.000614862
-0.0003461509,-2.1439077e-05,-0.0003571372
0.000289845,-2.3727895e-05,0.0002835889
0.0003583579,-1.3504506e-05,0.00036293556
-3.12047e-05,-1.0452748e-05,-3.852892e-05
-0.0004563208,-1.47252085e-05,-0.00046318772
-0.00037026027,-2.769518e-05,-0.00039406397
0.00024727252,-2.2202015e-05,0.0002051573
0.00039955715,-1.7471792e-05,0.0003583579
3.913927e-05,-1.3351918e-05,6.942749e-06
-0.00039803126,-1.3809681e-05,-0.0004207678
-0.00040535594,-2.037096e-05,-0.0004322119
0.0002025633,-2.403307e-05,0.00015800715
0.000438468,-2.037096e-05,0.0004000149
0.00010490609,-1.3046742e-05,7.9422956e-05
-0.0003409629,-1.5793325e-05,-0.00035912087
-0.00043251706,-1.3809681e-05,-0.0004535742
0.00014076472,-1.9302846e-05,0.000107500084
0.00045326952,-1.8845083e-05,0.00042488766
0.00015846491,-1.396227e-05,0.00014122248
-0.00028786136,-1.4114858e-05,-0.00029945804
-0.00045693113,-1.9608022e-05,-0.00046547654
6.477452e-05,-2.4948598e-05,4.524279e-05
0.00045571092,-2.0523548e-05,0.0004334326
0.00020576765,-1.6403676e-05,0.00019447613
-0.00024589922,-1.4572621e-05,-0.00024467852
-0.00048210908,-1.2894154e-05,-0.00047447922
-1.47252085e-05,-2.4490835e-05,-2.1133901e-05
0.0004473181,-2.4338247e-05,0.0004399939
0.00024788285,-1.762438e-05,0.00025185014
-0.00019554426,-1.5945912e-05,-0.00018028547
-0.00048607637,-1.3657093e-05,-0.0004647136
-9.0104586e-05,-2.189684e-05,-7.850743e-05
0.00043434813,-2.2964956e-05,0.00044197752
0.0002968645,-1.7014028e-05,0.0003221941
-0.00013389779,-1.5030385e-05,-9.544516e-05
-0.00046944382,-1.5030385e-05,-0.00042107297
-0.00015632868,-1.7014028e-05,-0.00011451913
0.00041100217,-1.8082143e-05,0.00044563963
0.0003511863,-1.6556263e-05,0.00040550806
-7.0725444e-05,-1.0910511e-05,-1.7547608e-06
-0.0004509802,-1.2131215e-05,-0.0003649197
-0.00021782255,-2.1439077e-05,-0.00013405038
0.00038323022,-1.9150259e-05,0.00046334032
0.00039421656,-1.7319204e-05,0.0004909592
-9.842396e-06,-1.6251088e-05,0.00010841561
-0.00041527417,-1.6708851e-05,-0.00027367068
-0.00027290775,-2.0523548e-05,-0.00012260629
0.0003496604,-2.0828726e-05,0.0005046921
0.00044563963,-1.762438e-05,0.0006232548
6.1112405e-05,-1.6861439e-05,0.00026909306
-0.00035957864,-1.6251088e-05,-0.000121080404
-0.00030663016,-1.976061e-05,-5.5466655e-05
0.00031120778,-2.0676138e-05,0.000568933
0.00048805954,-1.823473e-05,0.0007735563
0.00013923884,-1.2283803e-05,0.00045464278
-0.00029991582,-1.396227e-05,4.00548e-05
-0.00033638527,-2.1133901e-05,1.6403199e-05
0.0002596326,-1.899767e-05,0.0006119633
0.00052178197,-1.7166616e-05,0.0008881517
0.00020042706,-1.1673451e-05,0.00059227896
-0.00025246048,-1.2894154e-05,0.00016075374
-0.00036659813,-1.9913197e-05,5.882359e-05
0.00019096662,-2.4948598e-05,0.00060769083
0.0005271225,-2.3270131e-05,0.00094796665
0.00024406816,-1.7929555e-05,0.0006823068
-0.00020912505,-1.1368275e-05,0.00023308182
-0.000414969,-1.4420033e-05,2.6779653e-05
8.4305764e-05,-2.555895e-05,0.0005046921
0.0004969101,-2.2202015e-05,0.00089395005
0.0002571912,-2.2812368e-05,0.0006453805
-0.00019645978,-1.6403676e-05,0.00017280818
-0.0004547949,-1.5488149e-05,-0.00011131478
-1.7929555e-05,-2.2354603e-05,0.00028175785
0.00045449022,-1.7166616e-05,0.00071297743
0.0002735181,-1.1978626e-05,0.00051186373
-0.00017631818,-1.5182973e-05,3.364611e-05
-0.0004937058,-1.7166616e-05,-0.00031532766
-0.0001273365,-2.037096e-05,9.07898e-06
0.0004073391,-2.5864125e-05,0.0005022507
0.00029411796,-1.1215688e-05,0.00037422753
-0.00014213753,-1.1826039e-05,-7.789708e-05
-0.0004937058,-1.1826039e-05,-0.0004483862
-0.00020988799,-1.8692494e-05,-0.00019539167
0.00036797096,-2.0828726e-05,0.00036385108
0.0003299761,-1.5793325e-05,0.00032524587
-9.147787e-05,-1.8845083e-05,-9.834433e-05
-0.00047798874,-1.8387318e-05,-0.00048592378
-0.00028374148,-2.342272e-05,-0.00031059745
0.00032143117,-2.479601e-05,0.00027672245
0.00036003639,-2.037096e-05,0.0003221941
-3.8376333e-05,-1.2131215e-05,-7.0878035e-05
-0.0004575415,-1.4420033e-05,-0.00048378756
-0.00035820535,-1.9302846e-05,-0.00039146998
0.00025856448,-2.1286489e-05,0.0002051573
0.0003859768,-1.4572621e-05,0.0003369956
1.0147095e-05,-1.1978626e-05,-2.6169302e-05
-0.00042641355,-1.6251088e-05,-0.00044914914
-0.00040184642,-2.0828726e-05,-0.00043022825
0.00020683576,-2.0676138e-05,0.00016105891
0.0004183264,-1.6403676e-05,0.00037697412
7.5913435e-05,-1.3351918e-05,4.936266e-05
-0.0003659878,-8.163453e-06,-0.00038780787
-0.00043144895,-1.6708851e-05,-0.0004537268
0.00015007258,-2.8305532e-05,0.00011253548
0.00044167234,-2.4948598e-05,0.00040062526
0.00012977791,-2.1591664e-05,0.00010231209
-0.00032005788,-1.8082143e-05,-0.0003383689
-0.00046578172,-1.8845083e-05,-0.0004819565
7.438756e-05,-2.1744252e-05,4.0512565e-05
0.00043953612,-1.6861439e-05,0.0003998623
0.00017814923,-1.3657093e-05,0.00014580012
-0.00027306034,-1.5945912e-05,-0.00029915286
-0.00048790744,-2.2812368e-05,-0.0005103379
-2.0599366e-06,-2.3575307e-05,-4.3564323e-05
0.00043678953,-2.0218373e-05,0.00038902857
0.00022270586,-1.5182973e-05,0.00018211652
-0.00022255279,-1.4114858e-05,-0.00025719072
-0.0004969101,-1.5793325e-05,-0.0005286489
-7.850743e-05,-2.189684e-05,-0.00012718391
0.00042763425,-2.2507193e-05,0.00036842874
0.0002722974,-1.8082143e-05,0.00021477033
-0.00016472102,-1.7166616e-05,-0.00021843292
-0.00049492647,-1.6251088e-05,-0.00054512883
-0.00015632868,-2.2812368e-05,-0.0002198062
0.000398489,-1.8845083e-05,0.000318532
0.00031059745,-1.9455434e-05,0.000235981
-0.000116655356,-1.8845083e-05,-0.00018623639
-0.0004885178,-1.5488149e-05,-0.0005536738
-0.0002361336,-2.1439077e-05,-0.00031532766
0.0003533225,-1.9913197e-05,0.0002571912
0.00034004738,-1.3504506e-05,0.00024895096
-6.767369e-05,-1.1520863e-05,-0.00015251398
-0.00047035934,-8.468628e-06,-0.0005481806
-0.00030525686,-1.5640737e-05,-0.00039391138
0.00030678275,-2.4948598e-05,0.00020180036
0.0003762112,-1.6861439e-05,0.00027412846
-1.1978626e-05,-1.07579235e-05,-0.00010612631
-0.00043511105,-1.47252085e-05,-0.0005226979
-0.0003598838,-1.4420033e-05,-0.00045677854
0.0002555127,-1.7929555e-05,0.00014351131
0.00040291407,-2.0218373e-05,0.000289845
3.6850455e-05,-1.319933e-05,-6.721592e-05
-0.00040062572,-1.2588978e-05,-0.0004978256
-0.0004172578,-1.7319204e-05,-0.00052040914
0.00018364239,-2.189684e-05,6.599522e-05
0.00041420653,-1.7929555e-05,0.00029366018
8.125401e-05,-1.47252085e-05,-2.7390004e-05
-0.0003647671,-1.4420033e-05,-0.0004685283
-0.00045937303,-1.1978626e-05,-0.00056542305
0.00011238289,-2.037096e-05,-1.1368275e-05
0.0004283972,-2.0676138e-05,0.0003022051
0.00013527108,-1.5182973e-05,1.976061e-05
-0.00031761648,-1.1673451e-05,-0.00042320922
-0.0004869919,-1.1368275e-05,-0.0005907531
3.929186e-05,-2.2354603e-05,-8.461094e-05
0.00043526365,-1.4114858e-05,0.0003086138
0.00018822003,-1.2131215e-05,6.9657326e-05
-0.00026085283,-1.319933e-05,-0.00037056542
-0.0004953842,-1.0910511e-05,-0.00059990835
-3.5934925e-05,-1.8845083e-05,-0.00015587092
0.00042824462,-2.1286489e-05,0.0003018999
0.0002372017,-1.6708851e-05,0.00011635018
-0.0002085147,-9.994984e-06,-0.00032082084
-0.000505455,-1.9608022e-05,-0.00061211543
-0.000116502764,-2.1286489e-05,-0.00023506547
0.00040459255,-2.5253774e-05,0.00027687504
0.00027306034,-2.6779653e-05,0.00015327692
-0.00016227961,-1.8082143e-05,-0.00027260257
-0.0005034714,-1.5640737e-05,-0.00061013177
-0.00019478131,-1.976061e-05,-0.00031181815
0.0003734646,-2.0065785e-05,0.0002436104
0.0003183794,-1.5030385e-05,0.0001975279
-0.000107500084,-1.9608022e-05,-0.00022056914
-0.00048714448,-1.4420033e-05,-0.000594873
-0.00026192094,-2.1133901e-05,-0.0003760586
0.0003373008,-2.2049428e-05,0.00020973492
0.00035515358,-1.319933e-05,0.00023399736
-4.524279e-05,-1.1826039e-05,-0.00015571833
-0.0004525061,-1.319933e-05,-0.00055519963
-0.00031654836,-1.7319204e-05,-0.00042305663
0.0003009844,-1.4877797e-05,0.00018150617
0.0003974209,-1.7166616e-05,0.00027611208
1.4724732e-05,-1.823473e-05,-9.605551e-05
-0.00041313792,-1.1826039e-05,-0.0004988938
-0.0003672085,-2.189684e-05,-0.00042519285
0.00025368118,-2.7084829e-05,0.00019600202
0.00043770505,-1.7014028e-05,0.00039055446
8.506871e-05,-1.7471792e-05,5.1346306e-05
-0.00035164406,-1.4114858e-05,-0.0003762112
-0.00039513208,-1.7471792e-05,-0.00042015745
0.00019432355,-2.2354603e-05,0.00016090632
0.00045357467,-2.3575307e-05,0.00042809203
0.00012901498,-1.7929555e-05,9.544468e-05
-0.00032768777,-1.7471792e-05,-0.00036415673
-0.00045586302,-2.0218373e-05,-0.0004953842
9.666539e-05,-2.2964956e-05,4.6616078e-05
0.00044426633,-2.3727895e-05,0.0004024563
0.00016548396,-1.5793325e-05,0.0001337452
-0.00028541996,-1.4572621e-05,-0.00031029226
-0.00048363497,-1.6556263e-05,-0.00051552587
1.701355e-05,-1.9608022e-05,-4.8905375e-05
0.00043053343,-2.265978e-05,0.00034660866
0.00020073225,-1.7776967e-05,0.0001097889
-0.00024513627,-1.9302846e-05,-0.00032616188
-0.00050637056,-2.2507193e-05,-0.0005709162
-6.813145e-05,-2.4643423e-05,-0.00015342952
0.00041634275,-2.479601e-05,0.00031502248
0.00024803545,-1.9608022e-05,0.00014976741
-0.00019630718,-1.899767e-05,-0.00029777957
-0.0005124741,-1.7471792e-05,-0.0006354623
-0.0001535821,-2.1286489e-05,-0.00031670096
0.00038765528,-1.7319204e-05,0.00022682572
0.0002860303,-1.6861439e-05,0.00014976741
-0.00014167977,-1.1063099e-05,-0.0002747388
-0.00049629976,-1.5945912e-05,-0.00062523846
-0.00021690704,-1.8082143e-05,-0.00035423806
0.00036675026,-1.5182973e-05,0.00021965409
0.0003322654,-1.2131215e-05,0.00019233991
-8.857871e-05,-8.010865e-06,-0.00021934844
-0.00048287204,-1.3351918e-05,-0.0006025024
-0.00029045535,-2.1286489e-05,-0.00042168333
0.0003145647,-1.976061e-05,0.00017143489
0.00035683205,-1.4877797e-05,0.00021980668
-3.654528e-05,-2.189684e-05,-0.00016090632
-0.0004551001,-2.0828726e-05,-0.00057137397
-0.00034920266,-1.9913197e-05,-0.00046562913
0.0002657361,-1.8082143e-05,0.00013313485
0.00039024928,-1.60985e-05,0.0002619214
2.2507193e-05,-1.6861439e-05,-9.4529634e-05
-0.00040642408,-1.7471792e-05,-0.00051018526
-0.0003772793,-1.8845083e-05,-0.00048378756
0.00026665165,-1.7319204e-05,0.000172503
0.0004897385,-1.7166616e-05,0.0005248337
0.00017570735,-1.8387318e-05,0.00041435912
-0.0002123294,-1.1368275e-05,0.00025856448
-0.00022148468,-1.8539906e-05,0.00057351065
0.0004012356,-1.8387318e-05,0.0016118865
0.0006882582,-1.24363905e-05,0.0016420995
0.000342031,-1.1673451e-05,0.0016420995
-0.00019722272,-8.926392e-06,0.0016420995
-0.00046791794,-1.60985e-05,0.0010891128
-9.529257e-05,-2.4948598e-05,0.0007842374
0.00014122248,-1.7471792e-05,0.00021324445
-0.0001685362,-1.2894154e-05,-0.00057732535
-0.00061211543,-1.7014028e-05,-0.0010006104
-0.0007906461,-1.7319204e-05,-0.0010764478
-0.00021538115,-1.9302846e-05,-0.0004523535
0.00031792166,-1.60985e-05,0.00014290096
0.00016838314,-1.9302846e-05,5.0583363e-05
